200189643-02
200193873-02
200173138-02
200172792-02
200177345-02
200061668-02
200144412-02
200173980-02
200098292-02
200097896-02
200177351-02
200109095-02
200188831-02
200184903-02
200113009-02
200116244-02
200181740-02
200071947-02
200175425-02
200062813-02
200190443-02
200060840-02
200060438-02
200071401-02
200112345-02
200130740-02
200143403-02
200071411-02
200072266-02
200071875-02
200072521-02
200193943-02
200060550-02
200098062-02
200061681-02
200069211-02
200161437-02
200111203-02
200098821-02
200072767-02
200069828-02
200177350-02
200155868-02
200151132-02
200097907-02
200195107-02
200098566-02
200169112-02
200157777-02
200125771-02
200102297-02
200098722-02
200098649-02
200139423-02
200061076-02
200110959-02
200071934-02
200066057-02
200066055-02
200072264-02
200168260-02
200274813-01
200165581-02
200064929-02
200069264-02
200180786-02
200184232-02
200173983-02
200176185-02
200099934-02
200111131-02
200098480-02
200162667-02
200133624-02
200100183-02
200096699-02
200125952-02
200109959-02
200155580-02
200099302-02
200147478-02
200176021-02
200150861-02
200098569-02
200103542-02
200076319-02
200076427-02
200130791-02
200097602-02
200109436-02
200143064-02
200184657-02
200138956-02
200277087-02
200132331-02
200069053-02
200143420-02
200078368-02
200181915-02
200120951-02
200130858-02
200099087-02
200097343-02
200076958-02
200072343-02
200153393-02
200196266-02
200069132-02
200181840-02
200121783-02
200143776-02
200104298-02
200069135-02
200132101-02
200060872-02
200061081-02
200069290-02
200110224-02
200065235-02
200164732-02
200065163-02
201324493-01
201395862-01
200134412-02
200065849-02
200180625-02
200179848-02
200069059-02
200275094-02
200071084-02
200131177-02
200272846-01
200150858-02
200275199-01
200113169-02
200100471-02
200096907-02
200114876-02
200185132-02
200141118-02
200071612-02
200124084-02
200181149-02
200275124-01
201034220-01
201034266-01
201034232-01
200274431-01
200185967-02
200121519-02
200175158-02
201359402-01
200144899-02
200065853-02
200065675-02
200065790-02
200273512-01
200121381-02
200189012-02
201374692-01
200274300-01
200061164-02
200102180-02
200272899-01
200111778-02
200069142-02
200184664-02
200172876-02
200224007-03
200268199-01
200172798-02
200098208-02
200189761-02
200062035-02
200111243-02
200132483-02
200109096-02
200153895-02
200071797-02
200163312-02
200071864-02
200065326-02
200071860-02
200071568-02
200076370-02
200071876-02
200152603-02
200061667-02
200119597-02
200142738-02
200109094-02
200103666-02
200071859-02
200188911-02
200069302-02
200139207-02
200125772-02
200104149-02
200069207-02
200122663-02
200153432-02
200071701-02
200061001-02
200062025-02
200181976-02
200072527-02
200097885-02
200271804-02
200258620-01
200108761-02
200069296-02
200098644-02
200183941-02
200071863-02
200061340-02
200162279-04
200072844-02
200193393-02
200187034-02
200191950-02
200068672-02
200095691-02
200194501-02
200071333-02
200112538-02
200128679-02
200139637-02
200125978-02
200188369-02
200100022-02
200095214-02
200164906-02
200106616-02
200275049-01
200149517-02
200117412-02
200131069-02
200184349-02
200189933-02
201368515-01
200134958-02
200195467-02
200072216-02
200069655-02
200135418-02
200192217-02
200095762-02
200273508-01
200146083-02
200163238-02
200132278-02
200144453-02
200180447-02
200100196-02
200160858-02
200065847-02
200065674-02
200137905-02
200072687-04
200140716-02
200195427-02
200097929-02
200110640-02
200187005-02
200098462-02
200071697-02
200145928-02
200187193-02
200067916-02
200065528-02
200126411-02
200071404-02
200181665-02
200060894-02
200061832-02
200121295-02
200189576-02
201033364-01
200152328-02
200142209-02
200150199-02
200152691-02
200071171-02
200111128-02
200176362-02
201315617-01
200067782-02
200072347-02
200069051-02
200162708-02
200275530-01
201368403-01
200151498-02
200101735-02
201397871-01
200099764-02
200095789-02
200179940-02
200101893-02
200132316-02
201033323-01
201034237-01
201034252-01
201034268-01
200162149-02
201033350-01
201395155-01
200110811-02
200275252-01
200072354-02
200064533-02
200141899-02
200172607-02
200275045-01
201322542-01
200101472-02
200177680-02
200069054-02
200844126-02
200133165-02
200272529-01
200183043-02
200137886-02
200061312-02
200152638-02
200186095-02
200062021-02
200117011-02
200142124-02
200060468-02
200173558-02
200174382-02
200071879-02
200077540-02
200158681-02
200065268-02
200060484-02
200146975-02
200060655-02
200128470-02
200071939-02
200060999-02
200072031-02
200072191-02
200072030-02
200159076-02
200069011-02
200061641-02
200071400-02
200189860-02
200195965-02
200144684-02
200061119-02
200139208-02
200153394-02
200072278-02
200144983-02
200061077-02
200186298-02
200072835-02
200069376-02
200159003-02
200184489-02
200061022-02
200072273-02
200066016-02
200072608-02
200071787-02
200193872-02
200176286-02
200183937-02
200110742-02
200061563-02
200098731-02
200191963-02
200065237-02
200186922-02
200187190-02
201394778-01
200100422-02
200069304-02
200122633-02
200125162-02
200181571-02
200061213-02
200147334-02
200143120-02
200064918-02
200158915-02
200118674-02
200108254-02
200099392-02
200187951-02
200129973-02
200072358-02
200156922-02
200160333-02
200151240-02
200095588-02
200134375-02
200124108-02
200096503-02
200184782-02
200175211-02
200096773-02
200186130-02
200146157-02
200188786-02
201314376-01
200135512-02
200102905-02
200130620-02
200111779-02
200162891-02
200111264-02
200060616-02
200137506-02
200140720-02
200194770-02
200095352-02
200154430-02
200105760-02
200106125-02
200102989-02
200153391-02
200065359-02
200072183-02
200192157-02
200113550-02
200097662-02
200097816-02
200158815-02
200097259-02
200065234-02
200187191-02
200129473-02
200124105-02
200196197-02
200128041-02
200227856-01
200181237-02
200132174-02
200186615-02
200130566-02
200129263-02
200119867-02
200124448-02
200072750-02
200099830-02
200099247-02
200137312-02
200109357-02
200107939-02
200124589-02
200273433-01
200192022-02
200194502-02
200099602-02
200182142-02
200069253-02
201310273-01
200128899-02
200938947-02
200141025-02
200749355-02
200269762-02
200098384-02
201325599-01
200065380-02
200132104-02
200171987-02
201034249-01
200130551-02
200071335-02
200275955-02
200272133-01
200069216-02
200190514-02
200097902-02
200175081-02
200177349-02
200065907-02
200098572-02
200098295-02
200146613-02
200120659-02
200071943-02
200076509-02
200098647-02
200109145-02
200060638-02
200189953-02
200060472-02
200065610-02
200071944-02
200071858-02
200072768-02
200137925-02
200137043-02
200068791-02
200126797-02
200076655-02
200175237-02
200061127-02
200097908-02
200188744-02
200061842-02
200069134-02
200071786-02
200147049-02
200124158-02
200062059-02
200245921-02
200102813-02
200182433-02
200161909-02
200097904-02
200067692-02
200069297-02
200128789-02
200153390-02
200118709-02
200098645-02
200097889-02
200097900-02
200098825-02
200136538-02
200193958-02
200189645-02
200118677-02
200072841-02
200113039-02
200065065-02
200066262-02
200146375-02
200273510-01
200071336-02
200188025-02
200175772-02
200128343-02
200177708-02
200176096-02
200121297-02
200121304-02
200121301-02
200127137-02
200162508-02
200133041-02
200193959-02
200077137-02
200163151-02
200137174-02
200118011-02
200273552-01
200191953-02
200096656-02
200160725-02
201391222-01
200103992-02
200133990-02
200069055-02
201391212-01
200165153-02
200118911-02
200125940-02
200108842-02
200196433-02
200124647-02
200124648-02
200098220-02
201363747-01
200107118-02
200113299-02
200149316-02
200139737-02
200096768-02
200071732-02
200096781-02
200112681-02
200100420-02
200173881-02
200142248-02
200095906-02
200159918-02
200061331-02
200162450-02
200072350-02
200130784-02
200099442-02
200071334-02
200183056-03
200196121-02
200072378-02
200101072-02
200100479-02
200132292-02
200151922-02
200187196-02
200188757-02
200157116-02
200274489-01
200077390-02
200072838-02
200124215-02
200063040-02
200153078-02
200276085-02
200186133-02
200193940-02
200185497-02
200116571-02
200068561-02
200155657-02
200075208-02
200071167-02
200072016-02
200161442-02
200275534-01
200275298-01
200062175-02
200099255-02
200067710-02
200071329-02
200133953-02
200142747-02
200143336-02
200105285-02
200119349-02
200161071-02
200187446-02
200060935-02
200076487-02
200275904-02
200071937-02
200269344-01
200187264-02
200183667-02
200124594-02
200053989-01
200275368-01
200272597-01
200275410-02
201400537-01
201401057-01
200275046-01
200124377-02
200053988-01
201392828-01
200844179-02
200065521-02
200132194-02
200173767-02
200253321-01
200108959-02
201424990-01
200095186-02
200844262-02
201393123-01
201363103-01
200275597-01
200062114-02
200071784-02
200062058-02
200158875-02
200185222-02
200262803-01
200153395-02
200060548-02
200097888-02
200272306-02
200098213-02
200097967-02
200061324-02
200164035-02
200189403-02
200177338-02
200163842-02
200129672-02
200128678-02
200162575-02
200120323-02
200060997-02
200060789-02
200061002-02
200136298-02
200143775-02
200071857-02
200146141-02
200160479-02
200071936-02
200189588-02
200119942-02
200148355-02
200111888-02
200190029-02
200189476-02
200098386-02
200273887-01
200060551-02
200193697-02
200065664-02
200133046-02
200065673-02
200076358-02
200116515-02
200060533-02
200097970-02
200071326-02
200270075-02
200184488-02
200141769-02
200193957-02
200061275-02
200149541-02
200146807-02
200105762-02
200098132-02
200268875-02
200116167-02
200097897-02
200097893-02
200071865-02
200076823-02
200152711-02
200119362-02
200110924-02
200072185-02
200187703-02
200071882-02
200061243-02
201358468-01
200060881-02
200127825-02
200075353-02
200132546-02
200123689-02
200061659-02
200098912-02
200151694-02
200191305-02
200184962-02
200127076-02
200099532-02
200114731-02
200165257-02
200138658-02
200144443-02
200150901-02
200098235-02
200135560-02
200109937-02
201406678-01
200062293-02
200179399-02
200072299-02
200072349-02
200184401-02
200153158-02
200175146-02
200116597-02
200106071-02
200114079-02
200097542-02
200099480-02
200165258-02
200196350-02
200118217-02
200069057-02
200143419-02
200162340-02
200149553-02
200136188-02
200187192-02
200065851-02
200067090-02
200069064-02
201359832-01
200115019-02
200097626-02
200127087-02
200173397-02
200069351-02
200071613-02
200072345-02
200148354-02
200159172-02
200277089-02
200162451-02
200100328-02
200097720-02
200099005-02
200274907-01
200121797-02
200141116-02
200277086-02
200193941-02
200184669-02
200161846-02
200071618-02
200076579-02
200162680-02
200062052-02
200071712-02
200158680-02
200071731-02
200275048-01
200065164-02
200071638-02
200071484-02
200193486-02
200097142-02
200173800-02
200176731-02
200153303-02
201346676-01
200188746-02
200176095-02
201033372-01
200072215-02
200190613-02
200065750-02
200069101-02
200107858-02
201428592-01
200129198-02
200195595-02
200275589-02
200274381-01
200126410-02
200154284-02
200140065-02
201394788-01
200164444-02
200067244-02
200099089-02
201034563-01
200161918-02
200179610-03
200189161-02
200737527-01
201034262-01
201392909-01
200130665-02
200135444-02
201355265-01
200162681-02
200076820-02
201385351-01
200275214-01
201033343-01
200173714-02
200076798-02
200148421-02
200076970-02
200060464-02
200097898-02
200069221-02
200183829-02
200158818-02
200061974-02
200250520-01
200060808-02
200065236-02
200072265-02
200060680-02
200072102-02
200146994-02
200105753-02
200067693-02
200071620-02
200061671-02
200114301-02
200060904-02
200060998-02
200159099-02
200061131-02
200107656-02
200130530-02
200104589-02
200069006-02
200061313-02
200060471-02
200072361-02
200143358-02
200191847-02
200071412-02
200126061-02
200163135-02
200181967-02
200071785-02
200181755-02
200097969-02
200254983-01
200097891-02
200061899-02
200151506-02
200104288-02
200185846-02
200181969-02
200146805-02
200135314-02
200098646-02
200098567-02
200071158-02
200098641-02
200114300-02
200270879-02
200188897-02
200152765-02
200072355-02
200072195-02
200138990-02
200163309-02
200180794-02
200096633-02
200151241-02
200127945-02
200146686-02
200195886-02
200096624-02
200067781-02
200106810-02
200121306-02
200273514-01
200192021-02
200129883-02
200100414-02
200096668-02
200097269-02
200189571-02
200164279-02
200065287-02
200169797-02
200187408-02
200071170-02
200164892-02
201375778-01
200115416-02
200165152-02
200152327-02
200134730-02
200160771-02
200069226-02
200127530-02
200061263-02
200175147-02
200189384-02
200196053-02
200138588-02
200097628-02
200129658-02
200134673-02
200065676-02
200098597-02
200190265-02
200106068-02
200133316-02
200184888-02
200060827-02
200121302-02
200129703-02
200192911-02
200188152-02
200076895-02
201397135-01
200069485-02
200128884-02
200121942-02
200137087-03
200065245-02
200151341-02
200072348-02
200060917-02
200184966-02
200095856-02
200108343-02
200126412-02
200181838-02
200130513-02
200133735-02
200107326-02
200270423-01
200065855-02
200071180-02
200126922-02
200096861-02
200131594-02
200119780-02
200071181-02
200180113-02
200156102-02
200163760-02
200128900-02
200069058-02
200126367-02
200097605-02
200111170-02
200129790-02
200149585-02
200061316-02
200096429-02
200097519-02
200138983-02
200065286-02
200183714-02
200161246-02
201033831-01
200104707-02
200275535-01
200071251-02
200072766-02
200061935-02
200099468-02
201375252-01
200157959-02
200065226-02
200275040-01
200071169-02
200273055-01
200273497-01
201398081-01
200106267-02
200118088-02
200246391-01
200189158-02
200107385-02
200109718-02
201034255-01
200275041-01
200275042-01
200275593-01
200126432-02
200072433-02
200125818-02
200097966-02
200172795-02
200172790-02
200098655-02
200177337-02
200098212-02
200175230-02
200100803-02
200060485-02
200158599-02
200106123-02
200071878-02
200118075-02
200060637-02
200100451-02
200176665-02
200163001-02
200245737-02
200105228-02
200132410-02
200060442-02
200071321-02
200072271-02
200118216-02
200071473-02
200071477-02
200071938-02
200152655-02
200071950-02
200111992-02
200164610-03
200175209-02
200175012-02
200099081-02
200193955-02
200146806-02
200153392-02
200181961-02
200071151-02
200062051-02
200062747-02
200162900-02
200099080-02
200181751-02
200193722-02
200193954-02
200193952-02
200111787-02
200185221-02
200152707-02
200098643-02
200098564-02
200119776-02
200158601-02
200098565-02
200071566-02
200098118-02
200097899-02
200097901-02
200180961-02
200071317-02
200100570-02
200097408-02
200263820-01
200275044-01
200183259-02
200092792-02
200181501-02
200187197-02
200154287-02
200177883-02
200065432-02
200117235-02
200097212-02
200061247-02
200067699-02
200075918-02
200100467-02
200126333-02
200110664-02
200164933-02
200187032-02
200065214-02
200163132-02
200189639-02
200146922-02
200142868-02
200160994-02
200126949-02
200148939-02
200170146-02
201316652-01
200126262-02
200275050-01
200159293-02
200128885-02
200128455-02
200188411-02
200134257-02
200140984-02
200065227-02
200099409-02
200100256-02
200271902-01
200172027-02
200144180-02
200187195-02
200143968-02
200072765-02
200191570-02
200271759-01
200071402-02
200142030-02
200132287-02
200111767-02
200116190-02
200165314-02
200273265-01
200069324-02
200095256-02
201033357-01
200125982-02
200065854-02
200271903-01
201033362-01
200071332-02
200180788-02
200117644-02
200128847-02
200096476-02
200188189-02
200104693-02
200100300-02
200108653-02
200141380-02
200069227-02
200160187-02
200139861-02
200121802-02
200272035-02
200061382-02
200128993-02
200072359-02
200274382-01
200075129-02
200137023-02
200179856-02
200271691-02
200111775-02
200165668-02
200273366-01
200135156-02
200134122-02
200185638-02
201034073-01
200069222-02
200061927-02
201033376-01
200105358-02
201392533-01
200180874-02
200100481-02
201034075-01
200069046-02
200274826-01
201359553-01
200142951-02
200065165-02
200164793-02
200061913-02
200072606-02
200066056-02
200173136-02
200143628-02
200072675-02
200098728-02
200228532-05
200261593-01
200189638-02
200108763-02
200076815-02
200125951-02
200071713-02
200071322-02
200065233-02
200065341-02
200077543-02
200076356-02
200134586-02
200264483-01
200109735-02
200072036-02
200147776-02
200076952-02
200072027-02
200072028-02
200069306-02
200172793-02
200129323-03
200060873-02
200195707-02
200066040-02
200190446-02
200146808-02
200104292-02
200113996-02
200121099-02
200072279-02
200147840-02
200194023-02
200175317-02
200184835-02
200186977-02
200097984-02
200062064-02
200069217-02
200147764-02
200065837-02
200097886-02
200098822-02
200269864-02
200153435-02
200069377-02
200102298-02
200275033-01
200145871-02
200071489-02
200116106-02
200145090-02
200190264-02
200138726-02
200164455-02
200194237-02
200153433-02
200273507-01
200123506-02
200191944-02
200069318-02
200166145-02
200099648-02
200128980-02
200189220-02
200121807-02
200151201-02
200071331-02
200069744-02
200147325-02
200072356-02
200101607-02
200072213-02
200071472-02
200111692-02
200071395-02
200150766-02
200074699-02
200063906-02
200273513-01
200273509-01
200175082-02
200186649-02
200107854-02
200097724-02
200102355-02
200146626-02
200119348-02
200129266-02
200131438-02
200146515-02
200065852-02
200125895-02
200162845-02
200185961-02
200160552-02
200109736-02
200126409-02
200152799-02
200071240-02
200065850-02
200139125-02
200103659-02
200246013-01
200128471-02
200120241-02
200060439-02
200182173-02
200114442-02
200095462-02
200112640-02
200188420-02
201034572-01
200154028-02
200148263-02
200088774-02
200071162-02
200108715-02
200128901-02
200141770-02
200065745-02
200143825-02
200184821-02
200102165-02
200097639-02
200275533-01
200108790-02
200111204-02
200101883-02
200277085-02
200152640-02
200160044-02
200156908-02
201386403-01
200069483-02
200160277-02
200071560-02
200273059-01
201033368-01
201034246-01
200272040-01
200107051-02
200099404-02
200131483-02
200165744-02
201033841-01
200097349-02
200143912-02
200121693-02
200060822-02
200126413-02
200117539-02
201396835-01
201034272-01
200153389-02
200126217-02
200072351-03
200072344-02
201034292-01
200105709-02
201034130-01
