200841302-01
200841303-01
201030672-01
200735629-01
200935995-01
200735851-01
200735852-01
200841337-01
200735853-01
200735854-01
201030723-01
200735855-01
200735856-01
200735857-01
200735858-01
201030724-01
200735859-01
200735860-01
200841338-01
200735861-01
200735862-01
200735863-01
200841339-01
200735865-01
200936043-01
200735867-01
200735868-01
200936080-01
200736101-01
200736102-01
201030758-01
200736103-01
200736104-01
200736105-01
200736106-01
200736107-01
200736108-01
200736109-01
201030759-01
200736110-01
200736112-01
200736113-01
200736114-01
201030761-01
200736115-01
200736117-01
201030798-01
200736351-01
200736352-01
200841424-01
200736354-01
201030799-01
200936127-01
200841221-01
200735412-01
200736356-01
200736357-01
200841425-01
200936128-01
200736358-01
200736359-01
200736360-01
200736361-01
200736362-01
200736363-01
200736364-01
200736365-01
200936129-01
200936130-01
200736588-01
201030846-01
201030847-01
200736589-01
200736590-01
200736591-01
200736592-01
200736594-01
200736595-01
200736596-01
200736598-01
200736599-01
200736600-01
200936181-01
200736602-01
200841460-01
200736603-01
200841461-01
200736604-01
200736605-01
200841462-01
200736829-01
200736830-01
200841504-01
200736831-01
200841505-01
200936214-01
200736832-01
200736833-01
200736834-01
200736835-01
201030902-01
200736836-01
201030903-01
200841506-01
200736837-01
200736839-01
200936215-01
200736841-01
200936216-01
200736842-01
200736844-01
200936264-01
200737074-01
200737075-01
200737076-01
200737077-01
200737078-01
200737079-01
201030947-01
200737080-01
200737081-01
200737082-01
200737083-01
200737085-01
200737086-01
200737088-01
200737089-01
200737090-01
200737092-01
201030948-01
201030949-01
200737314-01
201030988-01
200737316-01
200737317-01
200737318-01
201030990-01
200735414-01
200935951-01
200737319-01
200737320-01
200737321-01
200936309-01
200737322-01
200737323-01
200841588-01
200737325-01
200737326-01
200737327-01
201030992-01
200737324-01
200737328-01
200737329-01
200936311-01
200841589-01
201031039-01
200737551-01
200841631-01
200737552-01
200737553-01
200737554-01
200737556-01
200737557-01
200936349-01
200737558-01
200841632-01
200737560-01
200936350-01
200936351-01
201031040-01
200737561-01
200737562-01
200737563-01
200841633-01
200737564-01
200936352-01
200737773-01
200737774-01
200737775-01
200936396-01
200936397-01
201031096-01
200737776-01
200936398-01
200737777-01
200737778-01
200737779-01
200841684-01
201031098-01
200936399-01
200936400-01
201031099-01
200936401-01
200737782-01
200737783-01
200737784-01
200841685-01
200738001-01
200738002-01
200738003-01
200738004-01
200936455-01
200738005-01
200738006-01
201031141-01
200841727-01
200738007-01
200738008-01
200738009-01
201031142-01
200841728-01
200738010-01
200738011-01
200936456-01
200738012-01
200738013-01
200936457-01
200738014-01
200738015-01
200738016-01
200738225-01
200738226-01
200738228-01
200738229-01
200738230-01
200738231-01
200936502-01
200936503-01
200738232-01
200841785-01
200738233-01
200738234-01
200738235-01
200936504-01
200738236-01
200738237-01
200738238-01
200738239-01
200738240-01
200738241-01
200738242-01
200841786-01
201031228-01
200738451-01
200936560-01
201031229-01
200841830-01
201031230-01
200936561-01
200841832-01
200738453-01
200841833-01
200841834-01
200738454-01
200738455-01
200738456-01
200738457-01
200738458-01
200738459-01
200738460-01
200738461-01
200738462-01
200738463-01
201031278-01
201031279-01
200738688-01
200936597-01
200738689-01
200738690-01
200738691-01
200936598-01
201031280-01
200738692-01
200738693-01
200738694-01
200841879-01
200738696-01
200841880-01
200738698-01
200936599-01
200738699-01
200738700-01
200738701-01
200738702-01
200738918-01
200738919-01
201031327-01
200738920-01
200738921-01
200738922-01
200936643-01
200841926-01
200738923-01
200738924-01
200936644-01
200738925-01
200738926-01
200738927-01
200738928-01
200936645-01
200738929-01
200738930-01
200738931-01
200841928-01
200936647-01
200735165-01
200735166-01
201030571-01
200735167-01
200735164-01
201030572-01
200735168-01
200935910-01
200735169-01
200735170-01
200735171-01
200841219-01
200935911-01
200935912-01
200735172-01
200735173-01
200735174-01
200735175-01
200841220-01
201030573-01
200735176-01
200935913-01
200735178-01
200735410-01
200735411-01
200935950-01
200735413-01
200841250-01
200735415-01
200735416-01
201030618-01
200735417-01
201030619-01
200735418-01
200735419-01
200735420-01
200735421-01
200735422-01
200735423-01
200735424-01
200735425-01
200935952-01
200735426-01
200735427-01
200935996-01
200735630-01
200841304-01
200935997-01
200735631-01
200735632-01
200735633-01
200735634-01
200735636-01
200735637-01
201030673-01
200735639-01
200935998-01
200735640-01
200735641-01
200935999-01
201030674-01
200735642-01
200735643-01
200735644-01
200735645-01
200735869-01
200735870-01
200841340-01
200841341-01
200735871-01
200735872-01
200735873-01
200841342-01
200841343-01
200735874-01
200841344-01
201030725-01
201030726-01
201030727-01
200936044-01
200735876-01
200735877-01
200735879-01
200936045-01
200735880-01
200841345-01
200736118-01
200736119-01
200736120-01
200736121-01
201030762-01
200841385-01
201030763-01
200736122-01
200936081-01
200736123-01
200736124-01
200841386-01
200736125-01
201030764-01
200936082-01
200736126-01
200841387-01
200841388-01
200736127-01
200841389-01
200736128-01
200736129-01
200736130-01
200736366-01
200841426-01
200736367-01
200736368-01
200736369-01
200936133-01
200736370-01
200736371-01
200736372-01
200736373-01
200736374-01
200736375-01
200936134-01
200841427-01
200736376-01
200736377-01
200936135-01
200736378-01
200736379-01
201030800-01
200736380-01
200736381-01
200936182-01
201030848-01
200736606-01
200736607-01
201030849-01
200736608-01
200736609-01
200736610-01
200736612-01
200736613-01
201030851-01
200736614-01
200736615-01
200736616-01
200736617-01
200736618-01
200936183-01
200936184-01
200736619-01
200736620-01
200736621-01
200936217-01
200841507-01
200736845-01
200736846-01
200736847-01
200736848-01
200936218-01
200736849-01
200736850-01
200736851-01
201030904-01
200736852-01
200736854-01
201030905-01
200736856-01
201030906-01
200736857-01
200936219-01
200736859-01
200936220-01
201030907-01
200841539-01
200737093-01
200841540-01
200841541-01
200737094-01
200841542-01
200841543-01
200841544-01
200737095-01
200936265-01
201030950-01
200737097-01
200737098-01
200936267-01
201030951-01
200737099-01
200841547-01
200936268-01
200936269-01
201030993-01
201030994-01
200737330-01
200737331-01
200735649-01
200735656-01
200737332-01
200737333-01
200737334-01
200737335-01
201030991-01
200936313-01
200737336-01
200841590-01
200737337-01
201030995-01
200737338-01
200737339-01
200737340-01
200737341-01
200737342-01
200737343-01
200936310-01
200737344-01
200737345-01
200936353-01
200737565-01
200737566-01
200936354-01
200737567-01
200737568-01
200737569-01
200737570-01
201031042-01
200737571-01
200737572-01
200841636-01
200737573-01
200737574-01
200737575-01
200737576-01
200737577-01
200737578-01
200936355-01
201031043-01
200737579-01
200936402-01
200737785-01
200737786-01
201031100-01
200936403-01
200737787-01
200841686-01
200737788-01
200841687-01
200737789-01
200737791-01
200737792-01
200841688-01
200737793-01
200737794-01
200737795-01
201031102-01
200737796-01
200936405-01
200737797-01
200936046-01
200737798-01
200738017-01
200936459-01
200738018-01
200738019-01
200738020-01
201031143-01
200936460-01
200738021-01
200936461-01
200738022-01
201031144-01
200841729-01
201031145-01
200738023-01
200738024-01
200738025-01
201031146-01
200841730-01
200738027-01
200738028-01
200841731-01
201031185-01
201031186-01
201031187-01
200738243-01
200738244-01
200738245-01
200841787-01
200738246-01
200738247-01
200841788-01
200738248-01
200738249-01
200936505-01
200738250-01
201031188-01
200738251-01
200738252-01
200738253-01
200936506-01
200936507-01
200936508-01
200738254-01
200738256-01
200738464-01
200936562-01
200738466-01
200738467-01
200738469-01
200738470-01
200738471-01
200738472-01
201031231-01
200738473-01
200738474-01
200738475-01
200936563-01
200738476-01
200936564-01
200738477-01
200738478-01
200738479-01
200738480-01
201031232-01
200738481-01
200738482-01
200738703-01
200841881-01
200738704-01
200738705-01
200738706-01
200841882-01
200841883-01
201031282-01
200738709-01
200936600-01
201031283-01
200738710-01
201031284-01
200738712-01
200841885-01
200738714-01
200936601-01
200738715-01
200935914-01
200841222-01
200735179-01
200735180-01
200735177-01
200735181-01
200735182-01
200735183-01
201030574-01
200735184-01
200735185-01
200735186-01
200735187-01
200735188-01
200735189-01
201030575-01
200735190-01
200735191-01
200735192-01
200735193-01
201030570-01
201030576-01
200735194-01
200935909-01
201030620-01
200735428-01
200841251-01
200735429-01
200735430-01
200735898-01
200841252-01
201030621-01
200735431-01
200841253-01
200735432-01
200735433-01
200841254-01
200735434-01
200735435-01
200735436-01
200841255-01
200735437-01
200735438-01
200735439-01
200735440-01
200735441-01
200735442-01
200735646-01
200735647-01
200735648-01
200841306-01
200936000-01
200735650-01
201030675-01
201030676-01
200936001-01
200735651-01
200735652-01
200735653-01
200735654-01
200735655-01
200841307-01
200841308-01
201030677-01
200735658-01
200735659-01
200735895-01
200735660-01
200735896-01
200841346-01
200735882-01
200735883-01
200735884-01
200735885-01
201030728-01
200735887-01
201030622-01
200735443-01
201030729-01
200735889-01
200735890-01
200735891-01
200735892-01
200735897-01
200735893-01
201030730-01
200735894-01
201030588-01
200936047-01
201030765-01
200936084-01
200936085-01
200841390-01
200736131-01
200736132-01
200736133-01
200736134-01
200936086-01
200736135-01
200736137-01
200736138-01
200736140-01
200736141-01
200736142-01
200841391-01
200736144-01
200736145-01
200736146-01
200936087-01
201030766-01
200841428-01
200736382-01
200841429-01
200736383-01
200736384-01
200736385-01
200736386-01
200736387-01
200736388-01
201030801-01
201030802-01
201030803-01
200736389-01
200736390-01
200736391-01
200736392-01
200736393-01
200936136-01
200936137-01
200736396-01
200936138-01
200736397-01
201030852-01
201030853-01
200736623-01
200736624-01
200736625-01
200841464-01
200736626-01
200736627-01
200736628-01
200736629-01
201030854-01
200736630-01
200841465-01
201030855-01
200841466-01
200736631-01
200736632-01
200736633-01
200936185-01
200736634-01
200936186-01
201030856-01
200841467-01
200736860-01
200736861-01
200841508-01
201030908-01
201030910-01
200736863-01
200736864-01
200736866-01
200736867-01
200736868-01
200736869-01
200841509-01
200736870-01
200736871-01
200736872-01
201030911-01
200736873-01
200736874-01
200736875-01
200736876-01
200736877-01
200936270-01
200737101-01
201030952-01
200737102-01
201030953-01
200841548-01
200737103-01
200737104-01
200841549-01
200841550-01
200737105-01
200737107-01
200737108-01
200841551-01
200737109-01
200737110-01
200737111-01
200737112-01
200737113-01
200737114-01
201030954-01
200737115-01
200737346-01
200737347-01
200737348-01
201030996-01
200737349-01
200841587-01
200936314-01
200841591-01
200737350-01
201030997-01
200737351-01
200936315-01
200936316-01
200737352-01
200737353-01
200936317-01
200737354-01
200841595-01
200737356-01
200936319-01
200737357-01
200737580-01
201031044-01
200737581-01
200841637-01
200737582-01
201031045-01
200737583-01
200841638-01
200737584-01
200737585-01
200936356-01
200936357-01
200737586-01
200737587-01
200737588-01
201031046-01
201031047-01
201031048-01
200841639-01
201031049-01
200841640-01
200737590-01
200737799-01
200841689-01
200737801-01
201031103-01
200737802-01
200737803-01
200737804-01
200737805-01
200737806-01
200841690-01
200936407-01
200737807-01
200737808-01
200737809-01
201031104-01
200737810-01
200936408-01
200737812-01
200737813-01
200841359-01
200737814-01
200738030-01
200841733-01
200936462-01
201031148-01
200738032-01
200738033-01
200841734-01
200738035-01
200738036-01
201030680-01
200735674-01
200738037-01
200738038-01
200738039-01
200738040-01
201031149-01
200738041-01
201031150-01
200738042-01
200738043-01
200738044-01
200738045-01
200936509-01
200738257-01
200738258-01
200841789-01
200841790-01
200738259-01
200738260-01
200738261-01
200936510-01
200738262-01
200738263-01
201031189-01
201031190-01
200936511-01
200738265-01
200936512-01
200841792-01
201031192-01
200936513-01
201031193-01
201031194-01
200738483-01
201031233-01
200841835-01
200738484-01
200738485-01
200738486-01
200738487-01
200841837-01
200738488-01
200738489-01
200738490-01
201031234-01
200738492-01
200738493-01
200738494-01
200738495-01
200738496-01
200841838-01
200936567-01
200738716-01
200738717-01
200735447-01
200935954-01
200738718-01
200738719-01
200738720-01
200738721-01
200738722-01
200738723-01
200936604-01
200841886-01
200738724-01
200738726-01
200738727-01
200738728-01
200841887-01
200738729-01
201031287-01
200738730-01
200738731-01
200735948-01
200735195-01
200735196-01
200735197-01
200735198-01
200735199-01
200735200-01
201030577-01
200735201-01
200735202-01
200735203-01
200841223-01
200735204-01
200735205-01
200841218-01
201030578-01
200735206-01
200935915-01
201030579-01
200735207-01
200735208-01
200935916-01
200841224-01
200735209-01
200735210-01
200735444-01
200935953-01
200841256-01
201030623-01
200735445-01
200841257-01
201030624-01
200735446-01
201030625-01
200735448-01
200735449-01
200841258-01
200735450-01
200735451-01
201030626-01
200841260-01
200735452-01
200841261-01
200735453-01
200735454-01
200735455-01
200735662-01
200735663-01
200735664-01
201030678-01
200735665-01
200841309-01
200936002-01
201030679-01
200735666-01
200841310-01
200735668-01
200735669-01
200735670-01
200735671-01
200936004-01
200735672-01
200735673-01
200735675-01
200735676-01
200936048-01
200841259-01
200841348-01
200735899-01
200735900-01
200735901-01
200936049-01
200735902-01
200841349-01
200735903-01
200735904-01
200841350-01
200735905-01
200735906-01
200936050-01
200735907-01
200735908-01
200735909-01
200841351-01
200841352-01
200735910-01
200735911-01
200735912-01
200735913-01
200841392-01
200736147-01
200736149-01
200936088-01
200736150-01
200936089-01
200736152-01
200736153-01
201030767-01
200841393-01
201030768-01
200736154-01
200736155-01
200736156-01
200736157-01
200736158-01
200936090-01
201030769-01
200736159-01
200736160-01
201030770-01
201030804-01
200841430-01
201030805-01
200736398-01
200736399-01
200736400-01
200736401-01
201030806-01
200736402-01
200736403-01
200736404-01
200736405-01
200736407-01
200736408-01
200841433-01
200736409-01
200936139-01
200936140-01
200736410-01
200841434-01
200736411-01
200736635-01
200736636-01
200841468-01
200841469-01
200736637-01
201030857-01
200736638-01
200841470-01
200736639-01
201030858-01
200736640-01
200736641-01
200841471-01
200736643-01
200736644-01
200736645-01
201030859-01
200736647-01
200841473-01
200736648-01
200841474-01
200736878-01
200736879-01
200736880-01
201030912-01
200936221-01
200736881-01
200736882-01
200736883-01
201030913-01
200736884-01
200841510-01
200736885-01
201030914-01
200736886-01
200736887-01
200736888-01
200736889-01
200841511-01
200736890-01
200736891-01
200736893-01
200736894-01
200841552-01
200737116-01
200936272-01
200737118-01
200841553-01
200737119-01
200737120-01
200737121-01
200936273-01
200841554-01
201030955-01
200737122-01
201030956-01
201030957-01
201030958-01
200737123-01
200737124-01
200737126-01
200737127-01
201030959-01
200841555-01
200737358-01
201030999-01
201031000-01
200737355-01
200936318-01
200737359-01
200737361-01
200841596-01
200735667-01
200936003-01
200737362-01
200737363-01
200737364-01
200737365-01
200936322-01
200737366-01
200737367-01
200737368-01
200841593-01
201030998-01
200737369-01
200841597-01
200841641-01
200737591-01
201031050-01
200841642-01
200737592-01
200936358-01
200936359-01
200737593-01
200737594-01
201031051-01
200737596-01
200936360-01
200841643-01
200737597-01
200737598-01
200737600-01
200737601-01
200737602-01
200737603-01
200737604-01
200737605-01
201031106-01
200936409-01
200737815-01
201031107-01
200737816-01
200737817-01
200737818-01
201031108-01
201031109-01
200737819-01
200737820-01
201031110-01
200737821-01
200737822-01
200841691-01
200737823-01
200737824-01
200737826-01
200841692-01
200737827-01
200936410-01
200738046-01
200738048-01
200936463-01
200738049-01
200841735-01
200738050-01
200738051-01
200738052-01
200936464-01
200738053-01
200738054-01
200738055-01
200738056-01
200738057-01
200738058-01
200738059-01
200738060-01
200738061-01
200936465-01
200841736-01
200841737-01
200738062-01
201031195-01
201031196-01
201031197-01
200936514-01
200738267-01
200841793-01
201031198-01
200936515-01
200738269-01
201031199-01
200738270-01
200738271-01
200738272-01
200936516-01
200738273-01
200738274-01
200936517-01
200738275-01
200738276-01
200738277-01
201031200-01
200738497-01
201031236-01
200738498-01
200738499-01
200738500-01
200738501-01
200738502-01
201031237-01
200738504-01
200936568-01
200738505-01
200738506-01
200841839-01
200738508-01
200738509-01
200738510-01
201031239-01
200841840-01
200738511-01
200841841-01
201031240-01
201031288-01
200841888-01
200841889-01
201031289-01
201031290-01
200738734-01
200738735-01
200841890-01
200738736-01
200738737-01
200738738-01
200738739-01
200738740-01
200841891-01
201031292-01
200841892-01
200738743-01
200735685-01
200735924-01
201031293-01
200735211-01
201030580-01
200735213-01
200735214-01
200735215-01
200735212-01
201030582-01
200735216-01
200735217-01
200735218-01
200935918-01
200735219-01
200735220-01
200935919-01
200735221-01
200735222-01
200735223-01
201030583-01
200735224-01
200935920-01
200735225-01
200735226-01
200841226-01
200841262-01
200735457-01
200935955-01
200735458-01
200935956-01
200735459-01
200935957-01
200735460-01
200935958-01
200735461-01
200935959-01
200735462-01
200735463-01
200935960-01
200935961-01
200735464-01
200735466-01
200735467-01
200735468-01
200841263-01
200735677-01
200936006-01
200735679-01
200936007-01
200735681-01
200841311-01
200735682-01
200735684-01
200841312-01
200735686-01
200935917-01
200735456-01
201030681-01
200841313-01
200735687-01
200841314-01
200735688-01
201030682-01
201030683-01
200735689-01
200735690-01
200735691-01
200735915-01
200841353-01
200735916-01
200735917-01
200735918-01
200735919-01
200735920-01
200735921-01
200735922-01
200735923-01
200841354-01
200841355-01
200735925-01
200936051-01
200735926-01
200735927-01
200735928-01
201030731-01
201030732-01
200735930-01
200841357-01
200736161-01
200841394-01
200936091-01
200736162-01
200736163-01
200736164-01
200841395-01
200736165-01
200736166-01
200736167-01
200736168-01
200736169-01
200736171-01
200736172-01
200736173-01
200736174-01
200736175-01
200736177-01
200736178-01
200736179-01
200736412-01
200936141-01
200936143-01
201030627-01
200735465-01
200736413-01
200736414-01
200936144-01
200736415-01
200736416-01
200736417-01
200936145-01
201030808-01
200736418-01
201030809-01
200841435-01
200936146-01
200736419-01
200736420-01
201030810-01
200736421-01
200736422-01
200736423-01
200936147-01
200841475-01
200736649-01
200736650-01
200936187-01
200736652-01
201030860-01
200736654-01
200736655-01
200841476-01
200841477-01
200736657-01
200736658-01
200936188-01
200736659-01
200736660-01
200736661-01
200736662-01
200736663-01
201030861-01
200736664-01
200736665-01
200841512-01
201030915-01
200736896-01
200936222-01
201030916-01
200936223-01
201030917-01
200736897-01
200736898-01
200736899-01
200736900-01
200736901-01
200736902-01
200736903-01
201030918-01
200736905-01
200841514-01
200841515-01
200736906-01
200736907-01
201030919-01
200936274-01
201030960-01
200737129-01
200737130-01
201030961-01
201030962-01
200841556-01
200841557-01
200737131-01
200936275-01
200737132-01
200737133-01
200737134-01
200737135-01
200737136-01
200737137-01
200841558-01
200737138-01
201030963-01
200737140-01
200737141-01
201031002-01
200841598-01
200737370-01
200737371-01
200841599-01
200737372-01
200737373-01
200737374-01
200841600-01
200737375-01
200737376-01
200737377-01
200936323-01
200737378-01
201031003-01
201031004-01
200737379-01
200936324-01
200737380-01
201031005-01
200841601-01
200737381-01
200737382-01
201031052-01
200737606-01
200737607-01
200737609-01
200737610-01
200737612-01
200737613-01
200737614-01
200737615-01
201031053-01
200737616-01
200936362-01
200841644-01
200737617-01
200737618-01
200737619-01
200737620-01
200737621-01
200737623-01
200841645-01
200737624-01
200737829-01
200737830-01
200936411-01
200737832-01
200737833-01
201031112-01
200841693-01
201031113-01
200936412-01
200936413-01
200735469-01
200735678-01
200737837-01
200737838-01
200737839-01
200737840-01
200737841-01
200737842-01
200737843-01
200737844-01
200737845-01
200936466-01
200738063-01
200738065-01
200936467-01
200738066-01
200738067-01
200738068-01
200936468-01
200841738-01
200738070-01
200738072-01
200738073-01
200738075-01
200738076-01
200841739-01
200841740-01
200738077-01
200735680-01
200735683-01
200738078-01
201031201-01
200738278-01
200738279-01
200738280-01
200841794-01
200738281-01
200841795-01
200936518-01
200738282-01
200738283-01
200738284-01
200738286-01
201031202-01
200738287-01
200738289-01
200738290-01
200738292-01
200841796-01
200738293-01
200936519-01
200936569-01
200738513-01
200738514-01
200738515-01
200735875-01
200735878-01
200841842-01
201031241-01
200738517-01
200738518-01
200841843-01
200738519-01
200841844-01
200936570-01
200738520-01
200841845-01
200738521-01
200738522-01
200738523-01
200738524-01
200738525-01
200738526-01
200738527-01
200738528-01
200841893-01
200841894-01
200841895-01
200738744-01
200738746-01
200738747-01
200936606-01
200738748-01
200738749-01
200841897-01
200936608-01
200738750-01
200738751-01
200738752-01
200738753-01
200738755-01
200738756-01
200738757-01
200735227-01
200935921-01
200735228-01
200735229-01
200735230-01
200735231-01
200735232-01
201030584-01
200735233-01
200735234-01
200735235-01
201030581-01
200735236-01
201030585-01
200735237-01
200735238-01
200935922-01
200735239-01
200735240-01
200841227-01
200735241-01
200735242-01
200735243-01
200735244-01
201030628-01
200841264-01
201030629-01
200735470-01
200935962-01
201030630-01
200735471-01
201030631-01
201030632-01
200735472-01
200735473-01
201030633-01
200841265-01
200735474-01
200735475-01
201030634-01
201030635-01
200735477-01
200735478-01
200735479-01
200841267-01
200735480-01
200735693-01
200735694-01
200735695-01
200735696-01
200936008-01
200735697-01
200735698-01
200735699-01
200735700-01
201030684-01
200735701-01
200936009-01
200936010-01
200735702-01
200735703-01
201030685-01
201030686-01
200735704-01
200936011-01
200936012-01
201030687-01
200735705-01
200735931-01
200936052-01
200735933-01
200936053-01
200735935-01
200735936-01
201030733-01
200735938-01
200735939-01
200735940-01
200735941-01
200735942-01
200841358-01
201030734-01
200936054-01
200936055-01
200735943-01
200735944-01
200735945-01
200735946-01
200736180-01
200936093-01
200736181-01
200736182-01
201030771-01
200936095-01
200736184-01
200736186-01
200736187-01
200736188-01
201030772-01
201030773-01
200735881-01
200841347-01
200736191-01
200936096-01
200736192-01
200736193-01
200936097-01
200936098-01
200736194-01
200736424-01
200736425-01
200735259-01
200936148-01
200736426-01
200736427-01
200936149-01
200736428-01
200736429-01
200736430-01
200736431-01
201030813-01
200736433-01
201030814-01
200736435-01
200736436-01
200736438-01
200736439-01
200735886-01
200735888-01
200736441-01
200736666-01
200736667-01
200736668-01
200736669-01
200736670-01
200736671-01
200736672-01
200936189-01
200936190-01
200736673-01
200736674-01
200736675-01
200736676-01
200736677-01
200736678-01
200736680-01
200736681-01
201030862-01
200736683-01
200736684-01
200736909-01
200736910-01
200936225-01
200736911-01
200735914-01
200735932-01
200736912-01
200736913-01
200736914-01
200736915-01
200736916-01
200736917-01
200936226-01
200736918-01
200736919-01
200736920-01
200736921-01
200736922-01
200936227-01
200736923-01
200736924-01
200936228-01
200736925-01
200736926-01
200936277-01
200737142-01
201030965-01
201030966-01
200737144-01
200737145-01
200737147-01
200841559-01
200936278-01
200737148-01
200737149-01
200737150-01
201030968-01
200737151-01
200737152-01
200737153-01
200737154-01
200737155-01
201030969-01
200936279-01
201031006-01
200841602-01
200737385-01
200737387-01
200841603-01
200737388-01
200737390-01
200737391-01
200737393-01
200737394-01
200936325-01
200737395-01
200936326-01
200737396-01
200735476-01
200841266-01
200737397-01
200936328-01
200737398-01
200737399-01
200841646-01
200936363-01
200737625-01
200737626-01
201031054-01
201031055-01
200737627-01
200737628-01
200936365-01
200737629-01
200936366-01
200936367-01
200841648-01
200737630-01
200737631-01
200841649-01
200936368-01
200737632-01
200936369-01
200737846-01
200737847-01
200841694-01
200936005-01
200735692-01
200737849-01
200737850-01
200936414-01
200936415-01
200936416-01
201031114-01
200737851-01
200737852-01
200737853-01
200936417-01
200737854-01
200737855-01
200841695-01
200737856-01
200737857-01
200841696-01
200737858-01
200737859-01
200737860-01
200936418-01
200738079-01
200841742-01
200936470-01
200936471-01
200738081-01
200936472-01
200738082-01
200841743-01
200738083-01
200738084-01
200936474-01
200738085-01
201031152-01
200738086-01
200738087-01
200936475-01
200738088-01
200738089-01
200738090-01
200841744-01
201031153-01
200936520-01
200738295-01
200738296-01
200738297-01
200738298-01
201031203-01
200936521-01
200738299-01
200936522-01
200738300-01
200738301-01
200738302-01
200738303-01
200738304-01
200738306-01
200936524-01
200738307-01
200738308-01
200738309-01
201031204-01
200738310-01
200936571-01
200936572-01
201031242-01
200841846-01
200738529-01
200738530-01
200738531-01
200738533-01
201031243-01
200738534-01
200738535-01
200738536-01
200738538-01
200738539-01
200738540-01
200841848-01
200738542-01
201031245-01
200738758-01
200735864-01
200735866-01
200841900-01
200841901-01
200936609-01
200738759-01
200738760-01
200738761-01
200738762-01
201031294-01
201031295-01
200738763-01
200738764-01
200738765-01
200738766-01
200738768-01
201031296-01
201031297-01
200936610-01
200841903-01
200738770-01
200738771-01
200935923-01
201030586-01
200735245-01
200735246-01
200841228-01
200735247-01
200735248-01
200735249-01
200841225-01
200935924-01
200735250-01
200735251-01
201030587-01
200735252-01
200735253-01
200735254-01
200735255-01
200735256-01
200735257-01
200735258-01
200935925-01
200735949-01
201030735-01
200735950-01
200735951-01
200735952-01
200735953-01
200735954-01
200936056-01
200735955-01
200841360-01
200735957-01
200735958-01
200936057-01
200841362-01
200936058-01
201030736-01
200735959-01
200735960-01
200735961-01
200936099-01
200736195-01
200736196-01
200936100-01
200841397-01
200736197-01
200736198-01
200736199-01
200736200-01
200736201-01
200736202-01
200736203-01
200736204-01
201030774-01
200736205-01
200736206-01
200736207-01
200841398-01
200736209-01
200736210-01
200736212-01
200736442-01
200736443-01
200736444-01
200736445-01
200736446-01
200736447-01
200736448-01
200841436-01
200736449-01
200736450-01
200736451-01
200736453-01
200841437-01
200841438-01
200936150-01
200736455-01
200736456-01
200736457-01
200736459-01
200736460-01
200736686-01
200736687-01
200736688-01
200736689-01
200736690-01
200735731-01
200735734-01
200736691-01
200736692-01
200736693-01
200736694-01
200736695-01
200841478-01
200736696-01
200736697-01
200841479-01
200736698-01
200736699-01
201030863-01
201030864-01
200736700-01
200736701-01
200936193-01
200841480-01
200736927-01
200736928-01
200736929-01
200736930-01
200736931-01
200936229-01
200936230-01
200736933-01
200736934-01
200736935-01
200736936-01
200736938-01
201030920-01
200736939-01
200736940-01
200736941-01
200936232-01
200736942-01
200841517-01
200736943-01
201030970-01
201030971-01
200737156-01
200841560-01
200936280-01
200936281-01
200737157-01
201030972-01
200737158-01
200737159-01
200737160-01
200841561-01
201030973-01
200936282-01
200737162-01
200737163-01
200841562-01
200737165-01
200936283-01
200936284-01
200737166-01
200737400-01
200737401-01
200841604-01
200737402-01
200737403-01
200737404-01
200737405-01
200737406-01
200737407-01
200737408-01
200737409-01
200737410-01
200841605-01
200737411-01
200936329-01
200737412-01
200737413-01
200737415-01
200737416-01
200737417-01
200737419-01
200737420-01
200737634-01
201031058-01
200737635-01
200936370-01
200737636-01
201031059-01
201031060-01
200737637-01
200737638-01
200841651-01
200841652-01
200737639-01
200737640-01
200737641-01
200737642-01
200737644-01
200936371-01
200936372-01
200737646-01
200841697-01
200737861-01
201031115-01
200737862-01
201031116-01
201031117-01
201031118-01
200735956-01
200841361-01
200936419-01
200936420-01
200737864-01
200936421-01
200737865-01
200737866-01
200936422-01
200936423-01
200737867-01
200936424-01
200737868-01
200737869-01
200841699-01
200737870-01
200936425-01
200738091-01
200738092-01
200738093-01
201031154-01
200841745-01
200738094-01
200738095-01
200936476-01
201031155-01
200841747-01
201031156-01
200738097-01
200936477-01
200738098-01
200841748-01
200738099-01
200936478-01
200738100-01
201031157-01
200936479-01
200738101-01
200738311-01
200738312-01
200738313-01
200738314-01
200738315-01
200738316-01
200738317-01
201031205-01
200736471-01
200738318-01
200841798-01
200738319-01
200936525-01
200738321-01
200841799-01
200936527-01
200841800-01
200936528-01
201031206-01
200738322-01
200841801-01
200936529-01
200738543-01
200738544-01
200841849-01
200738545-01
200936573-01
200738546-01
200936574-01
200841850-01
200738547-01
200738548-01
200738549-01
200738551-01
200738552-01
200738554-01
200936575-01
201031247-01
200936576-01
200738555-01
200738556-01
200936612-01
200936613-01
200735967-01
200936060-01
200738772-01
200738773-01
200738774-01
200738775-01
200738776-01
200936614-01
200738777-01
200738778-01
200841904-01
200936615-01
200738779-01
200738780-01
200738781-01
200738782-01
200936616-01
200738783-01
200936617-01
200735260-01
200735261-01
200735262-01
200841229-01
200735263-01
200735264-01
200735265-01
200735266-01
200841230-01
200735267-01
200735268-01
200735269-01
200735270-01
200735271-01
200735272-01
200735273-01
200735274-01
200735275-01
201030589-01
200841231-01
200735276-01
200735277-01
200841232-01
200735491-01
200735492-01
200735493-01
200735494-01
200735495-01
200735496-01
200935968-01
200735497-01
200735499-01
201030641-01
201030642-01
200735501-01
200735502-01
200935969-01
201030643-01
200735503-01
200735504-01
200735505-01
200841270-01
200841271-01
200735506-01
200735720-01
200735721-01
200735722-01
201030691-01
200735723-01
200735724-01
200735725-01
200735726-01
200735727-01
200735728-01
200735729-01
200735730-01
201030692-01
200735732-01
200735733-01
200936016-01
200735735-01
200735736-01
200735737-01
200936017-01
200735738-01
200735739-01
200841363-01
200735962-01
200735963-01
200936059-01
200735964-01
200735965-01
200841364-01
200735966-01
200735968-01
200841365-01
200735969-01
200735970-01
200735971-01
200735972-01
200735974-01
201030737-01
200936061-01
200735975-01
200735976-01
200736214-01
200736215-01
200735498-01
200735500-01
200736216-01
200736217-01
200936101-01
200736218-01
201030776-01
200841399-01
201030777-01
200736219-01
200936102-01
200841400-01
200736220-01
200736221-01
200736222-01
200841401-01
201030778-01
200736223-01
201030779-01
200736224-01
200936103-01
200736225-01
200736461-01
201030815-01
200736463-01
200841439-01
200936152-01
200841440-01
200936153-01
200736465-01
200736466-01
200936154-01
201030817-01
201030818-01
200936155-01
200736467-01
200736468-01
200736469-01
201030819-01
200736470-01
201030865-01
201030820-01
200736703-01
200736704-01
200736705-01
200736706-01
200936194-01
201030866-01
200936195-01
200736707-01
200736708-01
201030867-01
200736709-01
200736710-01
200736712-01
200936197-01
201030869-01
200936198-01
200736713-01
200736714-01
200736944-01
200736945-01
200736946-01
200736947-01
200736948-01
200736949-01
200736950-01
200936233-01
200736951-01
200736952-01
200736953-01
200736954-01
200736955-01
200736956-01
200736957-01
200736958-01
201030921-01
200736959-01
200936234-01
200736961-01
200736962-01
200737167-01
200737168-01
200737169-01
201030974-01
200936285-01
200841563-01
200737170-01
200841564-01
200737171-01
200737172-01
200936286-01
200737173-01
200737174-01
200737175-01
200737176-01
201030975-01
200841565-01
200841566-01
200737177-01
200737178-01
200737179-01
200737180-01
200737181-01
200737421-01
200737422-01
200737423-01
200737424-01
200737425-01
200737426-01
200737427-01
200737428-01
200737429-01
200737430-01
200737431-01
201031009-01
200737432-01
200737433-01
200737434-01
201031010-01
201031011-01
200936330-01
200936331-01
200737435-01
200737436-01
200737648-01
200737649-01
200737650-01
200936373-01
200841653-01
200737652-01
201031062-01
200737653-01
200936374-01
200841654-01
200737655-01
200737656-01
201031064-01
200737657-01
200737658-01
200737659-01
201031065-01
200737660-01
200936375-01
200841655-01
201031066-01
200737871-01
200737872-01
200737873-01
200737874-01
200737875-01
200737876-01
200936426-01
200737877-01
200841700-01
200841701-01
200841702-01
200737879-01
200737880-01
200737881-01
200737882-01
200737883-01
200737884-01
200936427-01
200936428-01
200737886-01
200738102-01
201031158-01
200738103-01
200936480-01
200738104-01
200841749-01
200738105-01
200841750-01
200738106-01
200738107-01
201031159-01
200738108-01
200738109-01
201031160-01
200841751-01
200738110-01
200738111-01
200738112-01
200738113-01
200738114-01
200738115-01
200738116-01
200936530-01
200841803-01
200936531-01
200738323-01
200841804-01
200738324-01
200936532-01
200738325-01
201031207-01
200738326-01
200738327-01
200841805-01
200738328-01
200738329-01
200738330-01
200841806-01
201031208-01
200841807-01
201031209-01
200738331-01
200738332-01
200841808-01
200738557-01
200738558-01
200841852-01
200738560-01
200738561-01
200738562-01
200738564-01
200738565-01
200738566-01
201031248-01
200738567-01
201031249-01
200841853-01
200738568-01
200936577-01
200936578-01
200738569-01
200738570-01
200738571-01
201031250-01
200738572-01
201031251-01
200936619-01
201031300-01
200738784-01
201031301-01
200738785-01
201031302-01
200738786-01
200738788-01
200738789-01
200738791-01
201031303-01
200738792-01
200936620-01
200936621-01
200738794-01
200738796-01
200738797-01
200738798-01
200735278-01
200735279-01
201030590-01
200841233-01
200735280-01
200841234-01
200735281-01
201030591-01
201030592-01
200735282-01
200735283-01
200735284-01
201030593-01
200735285-01
200935926-01
200735286-01
200735287-01
200735288-01
200735289-01
200735290-01
201030594-01
200735291-01
200735292-01
200843303-01
200745665-01
200745666-01
200745667-01
200745668-01
200745669-01
200745670-01
200745671-01
200843304-01
200843305-01
200843306-01
200938004-01
200843307-01
200745672-01
201032680-01
200745673-01
200745674-01
200745675-01
200745676-01
200938005-01
200938006-01
200745898-01
200745899-01
200938061-01
200745900-01
200745901-01
200938062-01
201032729-01
200745902-01
200745903-01
200843338-01
200745904-01
200745905-01
200745906-01
200745907-01
201032730-01
200745908-01
200745910-01
200745911-01
201032731-01
201032732-01
200745912-01
200746149-01
200746150-01
200746152-01
200746153-01
200746154-01
200746155-01
200746156-01
200843384-01
200936196-01
201030868-01
200746157-01
200938096-01
201032771-01
200746158-01
200746159-01
200746160-01
201032772-01
200746161-01
200746162-01
201032773-01
200843385-01
200746163-01
200938097-01
200746164-01
200843420-01
200746395-01
200746396-01
200938144-01
200938145-01
200746397-01
200746398-01
201032815-01
200746399-01
200746401-01
200746402-01
200746404-01
200746405-01
200746406-01
200746407-01
200746408-01
200746409-01
200746410-01
200746411-01
201032816-01
200746412-01
200746641-01
200843463-01
200843464-01
200746642-01
200746643-01
200746644-01
200746645-01
200746646-01
200746647-01
200746649-01
200843465-01
200843466-01
201032856-01
200938189-01
200843467-01
200746652-01
200843468-01
200736711-01
200841518-01
200938190-01
201032909-01
200746864-01
200746865-01
200746866-01
200843518-01
200746867-01
200746868-01
200843519-01
200746869-01
200746870-01
201032910-01
200746871-01
200843520-01
200746872-01
201032911-01
200746873-01
200746874-01
200746875-01
201032912-01
200746876-01
200746877-01
200746879-01
200747094-01
200843564-01
200747096-01
200747097-01
200747098-01
200747099-01
201032960-01
201032961-01
200747100-01
200938277-01
200843565-01
200747101-01
200843566-01
200747102-01
201032962-01
200747103-01
200938278-01
200747104-01
200747105-01
200747106-01
200747107-01
200747108-01
200747109-01
200747327-01
200843615-01
200938316-01
200747329-01
200843616-01
200747330-01
200747331-01
200747333-01
200938318-01
200938319-01
200938320-01
200843617-01
201033011-01
200747334-01
200747335-01
200747336-01
201033012-01
200747337-01
200747338-01
200843618-01
201033056-01
200843666-01
200843667-01
200747561-01
200938358-01
201033057-01
200843668-01
200747562-01
200747563-01
200747564-01
200843669-01
200938359-01
200747566-01
200938360-01
200747567-01
200938361-01
200747568-01
200938362-01
200747569-01
200747570-01
201033058-01
200747571-01
200938405-01
200747788-01
200747789-01
200747790-01
201033105-01
200747791-01
201033106-01
200843717-01
200938406-01
200747792-01
200747793-01
200747794-01
200747796-01
200747797-01
201033107-01
201033108-01
200747799-01
200747801-01
200747802-01
200747803-01
201033109-01
200843777-01
200748023-01
200748024-01
200748025-01
201033146-01
200748026-01
200748027-01
200748028-01
200748029-01
201033147-01
200748030-01
201033148-01
200938442-01
200748032-01
200843778-01
200938443-01
200748033-01
200748034-01
200748035-01
200748250-01
200748251-01
200748252-01
200936458-01
200745677-01
200748253-01
200748254-01
200748255-01
200843822-01
200938504-01
200748256-01
200938505-01
200748257-01
200938506-01
200748258-01
200748259-01
201033187-01
200748260-01
200843823-01
200748261-01
200748262-01
200938507-01
200748263-01
200748264-01
200748496-01
200748497-01
200748498-01
200748499-01
200748500-01
201033221-01
200843866-01
200938555-01
200843868-01
200843869-01
200748501-01
200843870-01
200843871-01
200748502-01
200843872-01
200748503-01
200938556-01
200938557-01
200748504-01
200748505-01
200748506-01
200748731-01
200748732-01
200748733-01
200748734-01
201033257-01
200843914-01
200938607-01
200748735-01
200748737-01
201033258-01
200748738-01
200748740-01
200748741-01
200748743-01
200748744-01
200748745-01
200748746-01
201033259-01
200748747-01
200748748-01
200748749-01
200748975-01
201033288-01
200748976-01
200748977-01
200843963-01
200843964-01
200843965-01
200843966-01
200843967-01
200843968-01
200938659-01
200748980-01
201033289-01
200748981-01
201033290-01
200748983-01
200748984-01
201033291-01
201032639-01
200745678-01
200746168-01
200745461-01
200745462-01
200745463-01
200745464-01
200937948-01
201032640-01
200745465-01
200745466-01
200745467-01
200745468-01
200745469-01
201032641-01
200745470-01
200745471-01
200843253-01
200745472-01
200745473-01
200745474-01
200937949-01
200745475-01
201032642-01
200745476-01
200745477-01
201032681-01
201032682-01
200745679-01
200745680-01
200745681-01
200938007-01
200745683-01
200745684-01
200745685-01
200745686-01
200745687-01
200745688-01
201032683-01
200745689-01
200843309-01
200745690-01
201032684-01
200745691-01
200745692-01
200843310-01
201032685-01
201032733-01
200745914-01
200745915-01
200745916-01
200938064-01
201032734-01
200745917-01
200938067-01
201032735-01
200745918-01
200745920-01
201032736-01
200745921-01
200745922-01
200745923-01
200745924-01
200745925-01
201032737-01
200745926-01
201032738-01
200746165-01
200938098-01
200746166-01
200746167-01
200746169-01
200746170-01
200938100-01
200746171-01
200938101-01
200746172-01
200746173-01
200746174-01
200843386-01
201032774-01
200746176-01
200746177-01
200746178-01
200745682-01
200938065-01
200938104-01
200746413-01
200746414-01
200746415-01
200746416-01
200746417-01
200746418-01
200746419-01
200746420-01
200746421-01
200746422-01
200746423-01
200746424-01
200746425-01
200746426-01
200938146-01
200843421-01
200746427-01
200746428-01
200843422-01
201032817-01
201032818-01
200843423-01
200746653-01
200746655-01
200746656-01
201032858-01
200746657-01
200938191-01
200843469-01
200843470-01
200938192-01
200843471-01
200746658-01
200746659-01
200746660-01
200843472-01
200746661-01
200843473-01
200746662-01
200938193-01
200746663-01
200746664-01
200843474-01
200938194-01
200746880-01
200746881-01
200746882-01
200746883-01
200843521-01
200938231-01
200938232-01
200746885-01
200938233-01
200746887-01
200746888-01
200746889-01
200746890-01
201032913-01
201032914-01
200843522-01
201032915-01
200938234-01
200746891-01
200746892-01
200746893-01
200747110-01
200747111-01
200747112-01
200938279-01
201032964-01
200843567-01
200747114-01
200843568-01
200938280-01
201032965-01
200747117-01
200747118-01
200938281-01
200747120-01
201032966-01
200938066-01
200745919-01
200843569-01
200747121-01
200747122-01
200747123-01
200938321-01
201033013-01
200843619-01
200747339-01
200747340-01
200938322-01
200747341-01
200938323-01
200938324-01
200747343-01
200843620-01
201033014-01
200747345-01
200747346-01
200747348-01
200747349-01
200747350-01
200747352-01
200747353-01
200747572-01
200747573-01
200747574-01
200841356-01
200735929-01
200747575-01
200747576-01
200938363-01
200747577-01
200843670-01
201033059-01
200747578-01
200843671-01
200938364-01
200747579-01
200747580-01
200747581-01
200747582-01
200747583-01
200938365-01
200938366-01
200747584-01
200747585-01
200747586-01
200747587-01
201033060-01
200747804-01
200843718-01
200747806-01
200747807-01
200747808-01
200747809-01
200747811-01
200747812-01
200747813-01
200747814-01
200747815-01
200938407-01
200747816-01
200747817-01
200747818-01
200747819-01
200747820-01
200747821-01
201033110-01
200843720-01
200748036-01
200748037-01
200748038-01
200938446-01
200748039-01
200843779-01
200748040-01
200748041-01
200938448-01
200748042-01
200748043-01
200748044-01
200748045-01
200748046-01
200748048-01
200748049-01
200748050-01
200748051-01
200748052-01
200748053-01
201033151-01
200748265-01
200748266-01
201031176-01
200748267-01
200748269-01
200938508-01
200748270-01
200748272-01
200748273-01
200748274-01
200748275-01
200748276-01
200843824-01
201033188-01
200843825-01
201033189-01
200938511-01
200748278-01
200745742-01
200745744-01
200748279-01
200748507-01
200748508-01
200748509-01
200748510-01
200938558-01
200748511-01
201033222-01
200748512-01
200843873-01
200748513-01
201033223-01
200748515-01
200938559-01
200938560-01
200748516-01
200748518-01
200748519-01
200748520-01
200748522-01
200748750-01
200843915-01
200843916-01
200938608-01
200748752-01
200745979-01
200745983-01
200938609-01
200748753-01
200748754-01
200843917-01
200748755-01
201033260-01
200748756-01
200748757-01
200748758-01
200843918-01
200748759-01
200748760-01
200748761-01
200748762-01
200938610-01
200748763-01
200748764-01
200748985-01
200748986-01
200938661-01
200748988-01
200938069-01
200938662-01
200748989-01
200748991-01
200938663-01
200938664-01
200748993-01
200737983-01
200938665-01
200843970-01
200938666-01
200748995-01
200748996-01
200748997-01
200748999-01
200938667-01
200745478-01
200745479-01
200745480-01
200843254-01
200745481-01
201032643-01
200745482-01
200745483-01
200843255-01
200745484-01
200937950-01
200745485-01
200745486-01
200745487-01
200841724-01
200745488-01
200937951-01
200745489-01
200745490-01
200745491-01
200745492-01
200745493-01
200745494-01
200745495-01
200938011-01
200745693-01
200745694-01
200745695-01
201032686-01
201032687-01
200745696-01
200938008-01
200745697-01
200745698-01
200745699-01
200745700-01
201032688-01
200745702-01
200745703-01
200745705-01
200745706-01
201032689-01
200843311-01
200745708-01
200745927-01
200843339-01
200745928-01
200843340-01
200938068-01
200745929-01
200745930-01
200745931-01
201032739-01
200745932-01
200843341-01
200745933-01
200745934-01
200745935-01
200843342-01
200745936-01
200843343-01
200745937-01
200938070-01
200938071-01
200938105-01
201032775-01
200746179-01
200746180-01
201032777-01
200746182-01
201032778-01
200746183-01
201032779-01
200746184-01
200843388-01
201032780-01
201032781-01
200746185-01
200746186-01
201032782-01
200746187-01
200938106-01
200746188-01
200746189-01
201032783-01
200746430-01
200746431-01
200843424-01
200746432-01
200938147-01
200746433-01
200746434-01
200746435-01
200746437-01
200938148-01
200938149-01
200843426-01
201032819-01
200746439-01
200938150-01
200938151-01
200938152-01
200747173-01
200746440-01
200746441-01
200746442-01
201032860-01
200746665-01
200746666-01
200746667-01
200843476-01
200938195-01
200746668-01
200746669-01
200746670-01
200746671-01
200746673-01
200843477-01
200938196-01
200746675-01
200746676-01
200746677-01
200843478-01
200746223-01
200746225-01
200938198-01
200843523-01
200746894-01
200746895-01
200746896-01
200938235-01
200938236-01
201032916-01
200938237-01
200746897-01
200746898-01
201032917-01
200746899-01
200746900-01
200746901-01
201032918-01
200843524-01
200746902-01
200746903-01
200938238-01
200746904-01
200843525-01
201032919-01
200747124-01
200843570-01
200747126-01
200747127-01
200747129-01
200747130-01
200747131-01
200747132-01
200747133-01
200747134-01
200843571-01
200843572-01
200747135-01
200747136-01
200843573-01
200747137-01
200747138-01
200747139-01
200747140-01
201032967-01
200747141-01
200747355-01
200747356-01
201033015-01
200938325-01
200747358-01
200747359-01
200747360-01
200938326-01
200747361-01
201033017-01
200747362-01
201033018-01
200747363-01
200747364-01
200843621-01
201033019-01
201033020-01
200747365-01
200938328-01
201033021-01
200747588-01
200747589-01
201033061-01
200747590-01
200747591-01
200843672-01
200843673-01
200747592-01
200747593-01
200747594-01
200747595-01
200747596-01
200747597-01
200747599-01
200843674-01
200938368-01
200938369-01
200747601-01
200747602-01
201033062-01
200735827-01
200747822-01
200747823-01
200747824-01
200843721-01
200747825-01
200747826-01
201033111-01
201033112-01
200747827-01
200747828-01
201033113-01
200747829-01
200843722-01
200747830-01
201033114-01
200747831-01
201033115-01
200747833-01
200843723-01
200747834-01
200747835-01
200938449-01
201033152-01
200748054-01
200748055-01
200938450-01
200748056-01
200843780-01
200843781-01
201033153-01
200748057-01
200748058-01
200748059-01
200843782-01
200748060-01
200748061-01
201033154-01
200843783-01
200748062-01
200748063-01
200748064-01
200748065-01
200748066-01
200748067-01
200748280-01
200748282-01
200748283-01
200748285-01
200748286-01
200748287-01
200748288-01
200748289-01
201033190-01
200748290-01
200938512-01
200843827-01
200748291-01
200748292-01
200748293-01
200748294-01
200748295-01
200938513-01
200748296-01
200748297-01
200748298-01
200938561-01
200748523-01
200748524-01
200748525-01
200748526-01
200938562-01
200748527-01
200748528-01
200748529-01
200748531-01
200748532-01
201033225-01
200748534-01
200748535-01
200938563-01
200748536-01
200748537-01
200748538-01
201033226-01
200938564-01
200748765-01
200748766-01
201033261-01
201033262-01
200748767-01
200938611-01
200938612-01
200748768-01
200748769-01
200843919-01
200843920-01
200938613-01
200748770-01
200748771-01
200748773-01
200748774-01
200748776-01
200748777-01
200748778-01
200938614-01
200748779-01
200749000-01
200749001-01
200749002-01
201033292-01
200749003-01
200749004-01
200749005-01
200749006-01
200749007-01
200749008-01
200749009-01
200749010-01
200749012-01
200749013-01
200749014-01
200749016-01
200749017-01
200843971-01
200749018-01
201033294-01
200937952-01
200843256-01
200745496-01
200843257-01
200745497-01
200745498-01
200843258-01
200745499-01
200745500-01
200745501-01
200745502-01
201032645-01
200745503-01
200745504-01
200937953-01
200937954-01
200745505-01
200745506-01
201032646-01
200745507-01
200745508-01
201032647-01
200745509-01
200745510-01
200745709-01
200938012-01
200745711-01
200745712-01
200745713-01
200745715-01
200745716-01
200745718-01
200745719-01
200938013-01
200745720-01
200745721-01
201032690-01
200843312-01
200745722-01
200745723-01
200745724-01
200745725-01
200745726-01
200745727-01
200745728-01
200745939-01
200745940-01
200843345-01
200745941-01
200745942-01
200745943-01
200843346-01
200843347-01
200745944-01
201032741-01
201032742-01
201032743-01
200938072-01
200745947-01
200745948-01
200745949-01
200745950-01
200745951-01
200745952-01
200745953-01
201032784-01
200746190-01
201032785-01
200746191-01
200746192-01
201032786-01
200746193-01
200746194-01
200843389-01
200746195-01
200746196-01
200746197-01
200938107-01
200938108-01
200938109-01
200746199-01
200843390-01
200746201-01
200938110-01
201032787-01
200746443-01
200746444-01
200746445-01
200746446-01
200746447-01
200746448-01
200938153-01
200843427-01
200843428-01
200746449-01
200746450-01
201032820-01
200746451-01
200938154-01
200746452-01
200746453-01
200843429-01
201032821-01
200746454-01
201032822-01
200746455-01
200746456-01
201032823-01
200746678-01
201032862-01
200938199-01
200746680-01
200746681-01
200746682-01
200746683-01
201032863-01
200843479-01
200938201-01
200746684-01
200746685-01
200843480-01
200938202-01
200938203-01
200746686-01
200746687-01
200746689-01
200746690-01
200746691-01
200843527-01
200746905-01
200843528-01
200746907-01
201032920-01
200746909-01
200746910-01
200746911-01
200938240-01
200746913-01
200746914-01
200745748-01
200746228-01
200746915-01
201032921-01
200746916-01
200746917-01
200938241-01
200746918-01
200938242-01
200938243-01
200843574-01
201032968-01
200747142-01
200747143-01
201032969-01
200747144-01
200747145-01
200747146-01
200747147-01
200938282-01
201032970-01
200747148-01
200747150-01
201032971-01
200747151-01
201032972-01
201032973-01
200747152-01
200938283-01
200938284-01
200747366-01
200747367-01
200843622-01
201033022-01
201033023-01
200747368-01
200747369-01
200938329-01
200938330-01
200747370-01
200747371-01
200843623-01
200747373-01
200747375-01
200747376-01
201033024-01
200747378-01
200747379-01
200747381-01
200843675-01
200938370-01
200938372-01
200747603-01
200843393-01
200843394-01
200747605-01
200747606-01
200747607-01
200747608-01
200843676-01
200747609-01
200747610-01
200843677-01
200747611-01
201033063-01
200747612-01
200747613-01
200747614-01
201033064-01
200747615-01
200747616-01
200747617-01
200843724-01
200747836-01
201033116-01
200843725-01
200747837-01
200843727-01
200747838-01
200747839-01
201033117-01
200747841-01
200747842-01
200843728-01
200747843-01
200747844-01
200747845-01
200747846-01
200747847-01
200747848-01
201033118-01
200747849-01
200938451-01
200748068-01
200748069-01
200748070-01
200748071-01
201033155-01
200938452-01
200748072-01
200938453-01
200748073-01
200748074-01
200938454-01
200748076-01
200748077-01
200748078-01
201033156-01
201033157-01
200748079-01
200748080-01
201033158-01
200748081-01
200748299-01
200748300-01
200748301-01
200748302-01
200748303-01
200747175-01
200748304-01
200748305-01
200748306-01
200843828-01
200748307-01
200748309-01
200748310-01
201033191-01
200843829-01
201033193-01
200748312-01
200748313-01
200748314-01
200748539-01
201033227-01
200745987-01
200746237-01
200748540-01
200748541-01
200843875-01
200938565-01
200748542-01
200938566-01
200748543-01
200748544-01
200748545-01
200738180-01
200748546-01
200748547-01
200748548-01
200748549-01
200748550-01
200938567-01
200748551-01
200748552-01
200748553-01
200748554-01
200843876-01
200748555-01
200748781-01
200748782-01
200748783-01
200938615-01
200843921-01
200748785-01
201033263-01
200843922-01
200748786-01
200748787-01
200843923-01
200938616-01
200748788-01
200748789-01
200748790-01
200748791-01
200748792-01
200748793-01
200748794-01
200938617-01
200843924-01
201033295-01
200938668-01
200749019-01
200749020-01
201033296-01
200749022-01
200938669-01
200749024-01
200843972-01
200938670-01
200749026-01
200749027-01
200749028-01
200938671-01
200749030-01
200749031-01
200843973-01
200749033-01
200745511-01
200843259-01
200843260-01
200745512-01
200745513-01
201032644-01
200937955-01
200745514-01
201032648-01
200745515-01
200937956-01
200745516-01
200843261-01
200843262-01
200937957-01
200937958-01
200745517-01
200937959-01
201032649-01
200745518-01
201032650-01
200937960-01
200843263-01
200745729-01
200745730-01
200745731-01
201032691-01
200938014-01
200938015-01
201032692-01
200745732-01
200745733-01
200745734-01
200745735-01
200745736-01
200745737-01
200745738-01
200745739-01
200745740-01
200745741-01
201032693-01
200843313-01
200938016-01
200745743-01
201032744-01
200843348-01
200745955-01
200745956-01
200745957-01
200938073-01
200745958-01
200745959-01
200745960-01
200745961-01
200745962-01
201032745-01
201032746-01
200938074-01
200745963-01
200843349-01
200745964-01
200843350-01
200745965-01
200745966-01
200745967-01
200843351-01
200746202-01
200746203-01
200746204-01
200746205-01
200746206-01
200746207-01
200746209-01
200843391-01
201032789-01
200746210-01
200746211-01
200746212-01
200746213-01
200746214-01
200746215-01
200746216-01
200746217-01
201032790-01
200938112-01
200938113-01
200938114-01
200843430-01
200746459-01
200746460-01
200746462-01
200746463-01
200938155-01
200746465-01
201032824-01
200746466-01
200746468-01
200746469-01
201032825-01
200746471-01
200938156-01
200745519-01
200745544-01
200746472-01
200746473-01
200746474-01
200746475-01
200746692-01
200746693-01
200746694-01
200843481-01
200938204-01
200746695-01
200746696-01
200746697-01
200746698-01
201032864-01
201032865-01
200746700-01
200746701-01
200746703-01
201032866-01
200938206-01
200746705-01
200746706-01
200843482-01
200843530-01
200746919-01
200745750-01
200745754-01
201032922-01
200746920-01
200746921-01
200746922-01
200746923-01
200746924-01
201032923-01
201032924-01
200746925-01
200938244-01
200746926-01
201032925-01
200843531-01
200746928-01
200746930-01
200746931-01
201032926-01
200938285-01
201032974-01
200747155-01
200938286-01
200747156-01
201032975-01
200747157-01
200938076-01
200745999-01
200843577-01
200843578-01
200938287-01
201032976-01
200747159-01
200747160-01
200843579-01
201032977-01
200747161-01
200843580-01
200747162-01
200747164-01
200843624-01
200747382-01
200747384-01
200747385-01
200843625-01
201033025-01
200938331-01
201033026-01
200747387-01
201033027-01
200747389-01
200747390-01
200746198-01
200746200-01
200843627-01
200747391-01
200747392-01
201033028-01
200747393-01
200747394-01
200747618-01
200747619-01
201033065-01
200747620-01
200747621-01
200843678-01
200747622-01
200747623-01
200747624-01
200747625-01
200843679-01
200843680-01
200938373-01
201033066-01
200843681-01
200747627-01
200747628-01
200843682-01
200843683-01
200843684-01
200747850-01
200747851-01
200938410-01
200747852-01
200938411-01
200843729-01
200747853-01
200747854-01
200938412-01
200747855-01
200938413-01
201033119-01
200843730-01
200747856-01
200747857-01
200747858-01
200747859-01
200843731-01
200843732-01
200843733-01
200748082-01
200748083-01
200748084-01
200938457-01
200938458-01
200745768-01
200843344-01
201031139-01
200748085-01
200748086-01
200748087-01
200748088-01
201033160-01
200938459-01
201033161-01
200748089-01
200843786-01
200748090-01
200747174-01
200748091-01
201033163-01
200938461-01
200748316-01
200748317-01
200748318-01
200748319-01
200748321-01
200843831-01
200748322-01
200748323-01
200748324-01
200938516-01
200938078-01
201032776-01
200748325-01
200748326-01
200748327-01
200938517-01
200938518-01
200748328-01
200748329-01
200938519-01
200843832-01
201033194-01
200938568-01
200748556-01
200938569-01
200748557-01
200748558-01
201033230-01
200938570-01
200938571-01
200843877-01
200748560-01
200748561-01
200843878-01
200748563-01
200843879-01
200843880-01
201032788-01
200938111-01
200748564-01
200748565-01
200748566-01
200748795-01
200748796-01
200748797-01
200843925-01
200748798-01
200843926-01
200843927-01
201033264-01
200748799-01
200748800-01
200748801-01
200748802-01
200843928-01
200748803-01
201033265-01
200748804-01
200843929-01
200938618-01
200748805-01
200748806-01
200748808-01
201033297-01
200749034-01
200749036-01
200749037-01
200749038-01
200843974-01
201033298-01
200938672-01
200938673-01
200749039-01
200749040-01
200749041-01
200749042-01
200749043-01
200843975-01
201033299-01
200749045-01
200749046-01
200749047-01
200749048-01
200745520-01
200745521-01
200745522-01
200745523-01
200745524-01
200745525-01
200745526-01
200843264-01
200745527-01
200843265-01
200745528-01
200745529-01
200745530-01
200843266-01
200745531-01
200745532-01
200745533-01
200937961-01
200745534-01
200745535-01
200745536-01
201032651-01
200843267-01
201032694-01
200745745-01
200936039-01
200735828-01
200747176-01
200841334-01
200745746-01
200745747-01
200843314-01
200745749-01
200745751-01
200745752-01
200745753-01
200745755-01
200938017-01
200938018-01
200745756-01
201032695-01
200745757-01
200745758-01
200745759-01
200843315-01
200745760-01
201032696-01
200745968-01
200745969-01
200745970-01
200843352-01
201032747-01
200745971-01
200843353-01
200745972-01
200745973-01
200745974-01
200745976-01
200745977-01
200745978-01
200745980-01
200745981-01
200745982-01
201032748-01
200745984-01
201032749-01
200745985-01
200746218-01
200746219-01
201032791-01
200938115-01
200746220-01
200843392-01
201032792-01
200746221-01
200746222-01
201032793-01
200938117-01
200746224-01
201032794-01
200746226-01
200746227-01
200938118-01
200746229-01
200746230-01
200746231-01
200746477-01
201032826-01
200745701-01
200745704-01
200746478-01
200843431-01
201032828-01
200746479-01
200746480-01
200746481-01
200746482-01
200746483-01
200746484-01
200746485-01
200746486-01
200746487-01
200746488-01
200746489-01
200746490-01
200746491-01
200746492-01
200843432-01
200746493-01
200938157-01
200746707-01
200746708-01
200746709-01
200843483-01
200746711-01
200746712-01
200746713-01
200746715-01
200746716-01
200746717-01
200746718-01
200746719-01
200746720-01
200746721-01
200938208-01
200843484-01
200938209-01
200746722-01
200746723-01
200746724-01
200746933-01
200746934-01
200746935-01
200746936-01
200843532-01
200843533-01
200746937-01
200746938-01
200746939-01
200938245-01
200938289-01
200746941-01
200746942-01
200746943-01
200843534-01
200746944-01
200936451-01
200843535-01
201032928-01
200746945-01
200746946-01
200746947-01
200746948-01
200747165-01
200747166-01
200747167-01
201032978-01
201032979-01
200747168-01
200938288-01
200747169-01
200747170-01
200747171-01
201032980-01
200843581-01
200747172-01
201032982-01
200747177-01
200747179-01
201033029-01
200747395-01
200938333-01
200747396-01
200938334-01
200747397-01
200843628-01
200747398-01
201033030-01
201033031-01
200938335-01
200938336-01
200747399-01
200747400-01
200843629-01
200747401-01
200747402-01
200843630-01
200747403-01
200747404-01
200843631-01
200843632-01
200843685-01
200843686-01
200747631-01
200747633-01
200747634-01
200747635-01
200747636-01
200747637-01
200747638-01
201033067-01
200747639-01
200938375-01
200747640-01
200843687-01
200747641-01
200843688-01
200747642-01
200938376-01
200747643-01
201033068-01
200747644-01
200747861-01
200938416-01
200747863-01
200841769-01
200843734-01
200738181-01
201033120-01
200747864-01
200747865-01
200747866-01
200747867-01
200843736-01
201032740-01
200747868-01
200747869-01
201033121-01
200747870-01
200843738-01
200747871-01
200747872-01
200737984-01
200747873-01
200747874-01
200843787-01
200938462-01
201030716-01
200938463-01
200748092-01
200843788-01
200748093-01
200748094-01
200748095-01
200748096-01
200748097-01
200748099-01
200843791-01
200748100-01
200748101-01
200748102-01
200746181-01
201033164-01
200938464-01
200748103-01
200843793-01
200748104-01
200748330-01
200748331-01
200748332-01
201033195-01
200843833-01
201033196-01
200938520-01
200748334-01
200748335-01
200748337-01
200748338-01
200938521-01
200748340-01
200748341-01
200843834-01
200938522-01
200938523-01
200843835-01
200843881-01
200746208-01
200938116-01
200748567-01
200748568-01
200748569-01
201033232-01
201033233-01
200748570-01
200748571-01
200938573-01
200748572-01
200748573-01
200938574-01
201033234-01
200748574-01
200843883-01
200748576-01
200748577-01
200748578-01
200748579-01
200938619-01
200938620-01
200748810-01
200938621-01
200843931-01
200938622-01
201033266-01
200745707-01
200745710-01
200938623-01
200748812-01
200938624-01
200748813-01
200748814-01
200843932-01
200748815-01
200748816-01
200938625-01
200748817-01
201033267-01
200748818-01
200748820-01
200938674-01
200843976-01
200843977-01
200749049-01
200843978-01
200749051-01
201033302-01
200749053-01
200749054-01
200749055-01
201033303-01
200749056-01
200745945-01
200745946-01
201033304-01
201033305-01
200749058-01
200749059-01
200749060-01
200843268-01
200843269-01
200843270-01
200937962-01
200937963-01
200745537-01
200745538-01
200745539-01
200745540-01
200745541-01
200937964-01
201032652-01
200937965-01
200745542-01
200843271-01
201032653-01
200745543-01
200843272-01
200843273-01
200937966-01
200745545-01
200745546-01
200745761-01
200938019-01
200938020-01
201032697-01
200938021-01
200843316-01
200745762-01
200938022-01
200938023-01
201032698-01
200745763-01
201032699-01
201032700-01
200745764-01
200938024-01
200745765-01
200745766-01
200938025-01
200745767-01
200938026-01
201032701-01
200745769-01
200745986-01
200745988-01
200938075-01
200745989-01
200745990-01
200843354-01
200745991-01
200745992-01
200745993-01
200745994-01
200745995-01
200745996-01
200745997-01
200841776-01
200745998-01
200938077-01
201032750-01
200746000-01
201032751-01
200843355-01
200938119-01
200746232-01
200746233-01
200746234-01
200938120-01
200746235-01
201032795-01
200746236-01
201032796-01
200746238-01
200745714-01
200745717-01
201032797-01
200843395-01
200746239-01
200746240-01
200746241-01
200746242-01
200746243-01
201032798-01
200746244-01
200746245-01
200746494-01
200746495-01
200746496-01
200746497-01
200746498-01
200746499-01
200746500-01
200746501-01
200746502-01
200746503-01
200746504-01
200938158-01
200938159-01
200746506-01
200746508-01
200746509-01
200938160-01
200746511-01
200746512-01
200746513-01
200938161-01
200843485-01
200938210-01
200746725-01
201032867-01
200746726-01
200746727-01
200746728-01
200746729-01
200746730-01
200746731-01
201032868-01
200746732-01
200843486-01
200746733-01
200746734-01
201032869-01
201032870-01
200843487-01
200938211-01
200938212-01
200746736-01
200746949-01
200746951-01
200746952-01
200746953-01
200746954-01
201032929-01
200746955-01
200938246-01
200746956-01
200843536-01
200746957-01
200746958-01
200746959-01
200843537-01
200843538-01
200746960-01
200746961-01
200746962-01
200746963-01
201032930-01
200843539-01
200746964-01
200747180-01
201032983-01
200747181-01
200747183-01
200747184-01
200747185-01
200747187-01
200843582-01
201032984-01
200938290-01
200843583-01
200843584-01
200747188-01
200938291-01
200747189-01
200843585-01
200747190-01
200747191-01
200747192-01
201032985-01
200747193-01
200747405-01
200747406-01
200843633-01
200843634-01
200747407-01
200747408-01
200843635-01
200747409-01
200748435-01
200747410-01
200747411-01
200747413-01
200747414-01
200938338-01
200843637-01
200843638-01
200747415-01
200747416-01
200747417-01
200747418-01
200747419-01
200747420-01
200747646-01
200747647-01
200843689-01
200938377-01
200747648-01
200843690-01
200747649-01
201033070-01
200747650-01
201033072-01
200843691-01
200747652-01
201033073-01
200747654-01
200747655-01
200747656-01
200745954-01
200745975-01
200938379-01
200747657-01
200747875-01
201033122-01
200747876-01
200843739-01
200843740-01
200843741-01
200747877-01
200843742-01
200747878-01
200747879-01
200747880-01
200938418-01
200747881-01
200747882-01
200747883-01
201033123-01
200747884-01
200747885-01
200843743-01
200938419-01
200747887-01
200843744-01
200748105-01
201033165-01
200843795-01
200748106-01
200748107-01
200938465-01
200938466-01
200748108-01
200748109-01
200748110-01
201033166-01
200748111-01
200843796-01
200843797-01
200748112-01
200748113-01
200938467-01
200938468-01
200843798-01
200748114-01
200938469-01
200748115-01
200938524-01
200748344-01
200748346-01
200843836-01
200748347-01
200748349-01
200748350-01
200843837-01
200748352-01
200748353-01
200748354-01
200748355-01
200748356-01
200748357-01
201033197-01
200938525-01
200748358-01
200748359-01
200748360-01
200748361-01
201033198-01
200843884-01
200843885-01
200748580-01
200748581-01
200748582-01
200748583-01
200748584-01
200938575-01
200748586-01
200748587-01
200843886-01
201033236-01
200748588-01
200748590-01
200938576-01
201033237-01
200748591-01
200938577-01
200748592-01
200938578-01
200748821-01
200748822-01
201033268-01
200748823-01
200938626-01
200938627-01
200748824-01
200843933-01
200748825-01
201033269-01
200938628-01
201033270-01
200748826-01
200843934-01
200843935-01
201033271-01
200748827-01
200748828-01
200748829-01
200748830-01
200843938-01
200843979-01
200938677-01
200749061-01
201033306-01
201033307-01
200749062-01
200938678-01
201033308-01
200938679-01
200749063-01
200749064-01
200749065-01
200938680-01
200749066-01
201033309-01
200938681-01
200749068-01
200749069-01
200749070-01
200938682-01
200937967-01
200937968-01
200843274-01
200843275-01
200745547-01
200843276-01
201032654-01
200937969-01
200937970-01
200745548-01
200937971-01
200745549-01
200937972-01
200745550-01
200745551-01
200745552-01
200745553-01
200745554-01
200937973-01
201032655-01
200745555-01
200745556-01
201032656-01
200745770-01
200938027-01
200745771-01
200745772-01
200843317-01
200745773-01
200745774-01
200938029-01
201032702-01
200745775-01
201032703-01
200745776-01
201032704-01
200745777-01
200745778-01
200745779-01
200938030-01
200745780-01
201032705-01
201032706-01
201032707-01
200746001-01
200746002-01
200746004-01
200746005-01
200746006-01
200938079-01
200746007-01
200746008-01
200746009-01
200746010-01
200746012-01
200746013-01
200746014-01
200843358-01
200746015-01
200841538-01
200737096-01
200843359-01
201032753-01
200746016-01
200746246-01
200746247-01
200843396-01
200746248-01
200746249-01
200746250-01
200746251-01
200746252-01
200746253-01
200746254-01
200746255-01
200843397-01
200843398-01
200746256-01
200938121-01
200938122-01
200746257-01
200746258-01
200746259-01
200746260-01
200746261-01
200843399-01
200938162-01
200843433-01
200938163-01
201032829-01
200746515-01
200746516-01
200843434-01
200746517-01
200746518-01
200938164-01
200746519-01
200746520-01
200843435-01
200746521-01
200746522-01
200746523-01
201032830-01
200746524-01
200746525-01
200746526-01
200843436-01
200843437-01
200843488-01
200746737-01
201032873-01
200746738-01
201032874-01
200746739-01
200746740-01
200938213-01
201032875-01
200843491-01
200746741-01
200746742-01
200746743-01
200746744-01
200746745-01
200746746-01
200746747-01
200746748-01
201032876-01
201032932-01
200746965-01
200746967-01
200938247-01
200746969-01
200746970-01
200746971-01
200938248-01
200746972-01
200746974-01
200843541-01
200843542-01
200746976-01
200737100-01
200936271-01
200746977-01
200938249-01
200746978-01
200746979-01
200746980-01
200746981-01
200747194-01
201032986-01
200747195-01
200747196-01
200747197-01
200747198-01
200747200-01
200747201-01
200938292-01
201032987-01
201032988-01
200843586-01
200938293-01
200747204-01
200747205-01
200938295-01
200747206-01
200747207-01
200843639-01
200936266-01
200737117-01
200747421-01
200938339-01
200938340-01
200747422-01
200747423-01
200938341-01
200747424-01
200747425-01
200843640-01
201033033-01
200747426-01
200747427-01
200747428-01
200843641-01
200747429-01
200747430-01
200747431-01
201033034-01
200747432-01
200747433-01
201033035-01
200747434-01
200843692-01
200747659-01
200938380-01
200747661-01
201033074-01
200747662-01
200747663-01
201033075-01
200843693-01
200938382-01
200747664-01
201033076-01
200747665-01
200843694-01
200747666-01
200938383-01
200747667-01
200747668-01
200747669-01
200747670-01
200747671-01
200747888-01
200747889-01
200747890-01
200747891-01
200747892-01
201033124-01
200747894-01
200843745-01
200747896-01
200843746-01
200747897-01
200938420-01
200843747-01
200938421-01
200747898-01
200938422-01
201033126-01
200747899-01
200747900-01
200747901-01
200748116-01
200748117-01
200748118-01
200748119-01
200748120-01
200748121-01
200748122-01
200748123-01
201033167-01
200748124-01
200748125-01
200843799-01
200748126-01
200748128-01
200748129-01
200748131-01
200748132-01
200748133-01
200938470-01
200748135-01
200748136-01
200748362-01
201033199-01
200748363-01
200748364-01
200748365-01
200748366-01
200748367-01
201033200-01
200748368-01
200748369-01
200748370-01
200748371-01
201033201-01
200748372-01
200843838-01
200938526-01
200748373-01
201033202-01
200748375-01
200748376-01
200748377-01
200748378-01
200748593-01
200748594-01
201033239-01
200748595-01
200748596-01
200748597-01
201033240-01
200938579-01
201033241-01
200748598-01
200843888-01
200748599-01
200938580-01
200748600-01
200748601-01
200748602-01
200748603-01
200748604-01
200748605-01
200748606-01
200748607-01
200748608-01
200938629-01
200938630-01
200748832-01
200748833-01
200748834-01
200748835-01
200748836-01
200748837-01
200748839-01
200748840-01
200938631-01
200748841-01
200938632-01
200748842-01
200748843-01
200843940-01
200843941-01
200748844-01
200843942-01
201033273-01
200748845-01
200938683-01
201033311-01
200843981-01
200749071-01
200749072-01
200843982-01
200843983-01
200749073-01
200749075-01
201033312-01
200749076-01
200749077-01
200938684-01
200749079-01
200749080-01
200938685-01
200749081-01
200938686-01
200937974-01
200937975-01
200745557-01
200745558-01
200745559-01
200745560-01
200745561-01
200843277-01
200745562-01
200745563-01
200745564-01
200745565-01
200745566-01
200937976-01
200745567-01
200745568-01
200843278-01
200843279-01
200745569-01
200843280-01
201032657-01
200843281-01
200745571-01
200745781-01
200745782-01
200745783-01
201032708-01
200938031-01
200745784-01
200745785-01
200938032-01
200745786-01
200938033-01
200745787-01
200938034-01
200938035-01
200745789-01
200938036-01
200745791-01
200745792-01
200938037-01
201032709-01
200938038-01
200746017-01
201032754-01
200938080-01
200746018-01
201032755-01
200737125-01
200737143-01
200746020-01
200746021-01
200746022-01
200938081-01
200746023-01
200746024-01
201032756-01
200746025-01
200746026-01
200938082-01
201032757-01
200843361-01
200843362-01
200746027-01
200746028-01
200843363-01
200746029-01
200746263-01
200746264-01
200746265-01
200746266-01
200938124-01
200746268-01
200746269-01
201032799-01
200746270-01
200746271-01
200746273-01
200746274-01
200746275-01
200746276-01
200746277-01
200746278-01
200843401-01
200746279-01
200746280-01
201032800-01
200746281-01
200746528-01
200746529-01
200746530-01
200843438-01
201032831-01
200746531-01
200843439-01
200746532-01
200746533-01
200938167-01
200746534-01
200746535-01
201032833-01
200746536-01
200737164-01
200841567-01
200746537-01
200843442-01
200746538-01
200746539-01
200746750-01
200746751-01
200746752-01
200746753-01
200746754-01
200746755-01
200843492-01
200746756-01
200843493-01
200843494-01
200746757-01
200746758-01
200746760-01
200746761-01
200746763-01
201032877-01
200746764-01
200938215-01
200746765-01
200938250-01
200746982-01
200737106-01
200737146-01
200746983-01
201032933-01
200746984-01
200746985-01
201032934-01
201032935-01
200746986-01
201032936-01
200843544-01
200746987-01
200746988-01
200938251-01
200746989-01
200938252-01
200843545-01
200746990-01
200746991-01
200746992-01
200746993-01
200746994-01
200746995-01
200747209-01
200843588-01
200747210-01
200938298-01
200747211-01
200747213-01
200747214-01
200747215-01
201032989-01
201032990-01
200747216-01
200747217-01
200938299-01
200747218-01
200747219-01
200747220-01
200843589-01
200747221-01
200938300-01
200747222-01
200747435-01
200747436-01
200843642-01
200747437-01
200747438-01
200938342-01
200747439-01
201033036-01
200747441-01
200747442-01
200747443-01
200938343-01
200747445-01
200747446-01
200747447-01
200843644-01
200747448-01
200747449-01
200747450-01
200747451-01
200747452-01
201033077-01
200747672-01
200747673-01
201033078-01
200747675-01
200747676-01
200747677-01
201033080-01
200747678-01
200843695-01
200747679-01
200843696-01
200747681-01
200747682-01
200843698-01
200747683-01
200747684-01
200737315-01
201030989-01
200747686-01
200843748-01
200747902-01
200747903-01
200747904-01
200747905-01
201033127-01
200747906-01
200747907-01
200747908-01
200747909-01
200938423-01
200747910-01
200747911-01
200747912-01
200843749-01
201033128-01
200747913-01
200747914-01
200747915-01
200747916-01
200747918-01
201033129-01
200938424-01
200843800-01
200843801-01
200843802-01
200748138-01
200748139-01
200748140-01
200938472-01
201033168-01
200938473-01
200748141-01
200938474-01
200938475-01
200843803-01
200748142-01
200843804-01
201033169-01
200748143-01
200748144-01
200748145-01
200748146-01
200938476-01
200843840-01
200748379-01
200938527-01
200748380-01
200843841-01
200938528-01
200748382-01
200938529-01
200938530-01
200748384-01
200748385-01
200748386-01
200748387-01
200748388-01
201033204-01
200748389-01
200748390-01
201033205-01
200748391-01
200748392-01
200938531-01
200748610-01
200748611-01
200748612-01
201033242-01
200938581-01
200748614-01
200748615-01
200748616-01
200843889-01
201033244-01
200748619-01
200938582-01
200748620-01
200936312-01
200841592-01
200748621-01
200748622-01
200748623-01
200938583-01
200938584-01
200748846-01
200938633-01
200938634-01
200748847-01
200748848-01
201033274-01
200748849-01
200748850-01
200748851-01
200748852-01
200938635-01
200748853-01
200843943-01
200748854-01
200938636-01
200748855-01
200748856-01
200843944-01
200748857-01
200748859-01
200748860-01
200748861-01
200749083-01
200843986-01
200749084-01
200938687-01
200749085-01
200749086-01
200749087-01
201033314-01
201033315-01
200843987-01
200843988-01
200749088-01
200749089-01
200749090-01
200749091-01
200749093-01
201033316-01
200749095-01
200843989-01
200749096-01
201032615-01
200843230-01
200745341-01
200745342-01
200745343-01
200745344-01
200745345-01
200937923-01
200745346-01
201032616-01
200745347-01
200843231-01
200745348-01
200745349-01
201032617-01
200843232-01
200843233-01
200745350-01
200745351-01
200745352-01
200745353-01
200745354-01
200745355-01
200843282-01
200745572-01
200745573-01
200745574-01
200937977-01
200745575-01
200745577-01
200937978-01
200745579-01
200843283-01
200937979-01
200745580-01
201032658-01
200745581-01
200745582-01
200745583-01
200745584-01
200745585-01
200745586-01
200745587-01
200745795-01
200745796-01
200938039-01
200843319-01
200745797-01
200745798-01
200745799-01
201032710-01
200843320-01
200938040-01
200745800-01
200938041-01
200745801-01
200745802-01
200745803-01
200745804-01
200745806-01
200745807-01
201032711-01
200938044-01
200746030-01
200746031-01
200746032-01
200746033-01
200746034-01
200746035-01
200746036-01
200746037-01
200746038-01
200746039-01
200746040-01
200746041-01
201032758-01
200938083-01
200746042-01
200746043-01
200746044-01
200746045-01
200746046-01
200746047-01
200843364-01
200746048-01
200746050-01
201032801-01
200746283-01
200746284-01
200746285-01
200938125-01
200938126-01
200746286-01
200746287-01
200938127-01
201032802-01
200746288-01
200746289-01
200746290-01
200746291-01
200843402-01
200938128-01
200746292-01
200746293-01
200746294-01
201032803-01
200746295-01
200746296-01
200746297-01
201032834-01
201032835-01
200843443-01
200746541-01
200938168-01
200746543-01
200746544-01
200746545-01
200746546-01
200746547-01
200746548-01
201032836-01
200746549-01
201032837-01
200746550-01
200746551-01
200746552-01
200746553-01
200746554-01
200746555-01
200843495-01
201032879-01
200746766-01
200746767-01
200746768-01
200746769-01
200746770-01
200746771-01
200843496-01
200746773-01
200746774-01
200746775-01
200938216-01
200746776-01
200843497-01
201032881-01
200746778-01
200843498-01
200746779-01
200746780-01
201032882-01
200746996-01
200746997-01
200746998-01
200843546-01
200746999-01
200938253-01
200747000-01
200747001-01
200747002-01
200938254-01
200843547-01
200843548-01
200747003-01
200938255-01
200747004-01
200747005-01
200938256-01
200747007-01
200747008-01
200747009-01
200747010-01
200747223-01
200843590-01
200747224-01
201032991-01
200747225-01
200747226-01
200843591-01
201032992-01
200938301-01
200747227-01
200747228-01
200747229-01
200747230-01
201032993-01
200843592-01
200747231-01
200747232-01
200747233-01
200747234-01
200747235-01
201032994-01
200938302-01
200747236-01
200747453-01
200747455-01
200747456-01
200938344-01
200747458-01
200938345-01
200747459-01
200843645-01
200843646-01
200747460-01
200843647-01
200747461-01
200843648-01
200747462-01
200747463-01
200747464-01
201033037-01
200747465-01
200747466-01
201033038-01
200938346-01
200747687-01
200938384-01
200938385-01
200747688-01
201033082-01
200843699-01
201033083-01
200747690-01
200938387-01
200747692-01
200747693-01
200747694-01
200843700-01
200747695-01
200747696-01
200747697-01
200747698-01
200747699-01
201033084-01
201033085-01
200938388-01
200747919-01
200747920-01
200747921-01
200747922-01
200747923-01
200843750-01
200747924-01
200747925-01
200747926-01
201033130-01
200747927-01
200747928-01
200938425-01
200938426-01
200747930-01
200747931-01
200747933-01
200747934-01
200747935-01
201033131-01
200747936-01
200748147-01
200748148-01
200938477-01
200843805-01
200748149-01
200843806-01
200938478-01
201033170-01
200938479-01
200938480-01
200748150-01
200938481-01
200748151-01
200938482-01
200748152-01
200748154-01
200748155-01
200748156-01
200748157-01
200748158-01
200748159-01
200748394-01
200748395-01
201033206-01
200748396-01
200843842-01
200938532-01
200748397-01
200748398-01
200748399-01
200748400-01
200843843-01
200938533-01
201033207-01
201033208-01
200748401-01
201033209-01
200748402-01
200748403-01
200748404-01
200748405-01
200748406-01
200748407-01
200748624-01
200748625-01
200748626-01
200748627-01
200843891-01
200748628-01
200843892-01
200748630-01
200843893-01
200748631-01
200748632-01
200748633-01
200748634-01
200843894-01
200938585-01
200748635-01
200748636-01
200748637-01
200748639-01
200748640-01
200748862-01
200938638-01
200843945-01
200843946-01
200748864-01
200748865-01
200748867-01
200748868-01
200748869-01
200938639-01
200748870-01
200736960-01
200737084-01
200938640-01
200938642-01
200748871-01
201033276-01
200748873-01
201033277-01
200748874-01
200843234-01
201032618-01
200745356-01
200843235-01
200745357-01
200745358-01
201032619-01
201032620-01
200745359-01
200937924-01
200745360-01
200745361-01
200745362-01
200745363-01
200745364-01
200745365-01
200937925-01
200745366-01
200745367-01
200745368-01
200745369-01
200937926-01
200745370-01
200745588-01
200937981-01
201032659-01
200745589-01
201032660-01
200843284-01
200937982-01
200937983-01
200745590-01
200745591-01
200745592-01
200937984-01
200745593-01
200745594-01
200843285-01
200843286-01
200745595-01
200843287-01
200745596-01
200745597-01
201032661-01
200745598-01
201032712-01
200938045-01
200745809-01
200843321-01
200745810-01
200745811-01
200745812-01
200745813-01
200843322-01
200745814-01
200745815-01
201032713-01
201032714-01
200745816-01
200745817-01
200745818-01
200745819-01
200745820-01
200745821-01
200843323-01
200745822-01
200938046-01
200745823-01
200746051-01
200843365-01
200746052-01
200843366-01
200746054-01
200746055-01
200938084-01
200746057-01
200746058-01
200746059-01
200746060-01
200746061-01
200746062-01
200746063-01
200746064-01
200746065-01
200746066-01
200843368-01
200746067-01
200746068-01
200746298-01
200938129-01
200746299-01
200746300-01
200746301-01
200746302-01
200746303-01
200746304-01
200746305-01
200746306-01
200746308-01
200746309-01
200746311-01
201032804-01
200746312-01
200938130-01
200843403-01
200746314-01
200746315-01
200746316-01
201032838-01
200746556-01
200746557-01
200746558-01
200746559-01
201032839-01
200746560-01
200938170-01
200843444-01
200746561-01
200843445-01
200938171-01
200843446-01
200843447-01
200746562-01
200746563-01
200746564-01
200746566-01
200746567-01
200843448-01
200938172-01
200746568-01
200746781-01
200843500-01
200938217-01
200843501-01
201032883-01
200746782-01
200746783-01
200746784-01
201032884-01
200746785-01
200746786-01
200746787-01
200746788-01
200746789-01
200746790-01
200746791-01
200746792-01
200746793-01
200746794-01
200746795-01
200746796-01
200746798-01
200843549-01
200938257-01
200747012-01
201032939-01
200747013-01
201032940-01
200747014-01
201032941-01
200747015-01
200747016-01
200747017-01
201032942-01
200843550-01
200747018-01
200747019-01
200747020-01
200747021-01
200747022-01
200938259-01
200747237-01
200938303-01
200747238-01
200938305-01
200747239-01
200843593-01
200938306-01
200747241-01
200747243-01
201032996-01
200747244-01
200841545-01
200841546-01
200747245-01
200747246-01
200747247-01
201032997-01
200843594-01
200747248-01
200747249-01
200747250-01
201032998-01
200747467-01
200747468-01
200747469-01
200747470-01
200938347-01
200843649-01
200747471-01
200747472-01
200938348-01
200843650-01
200747473-01
200843651-01
200747475-01
201033039-01
200843652-01
200843653-01
200747476-01
200747478-01
201033040-01
201033041-01
201033042-01
200747700-01
200747701-01
200747702-01
200938389-01
200843701-01
200843702-01
200938390-01
201033086-01
200747703-01
200747704-01
200938391-01
200747705-01
200843703-01
200747707-01
200747709-01
201033088-01
201033089-01
200938392-01
200843704-01
200747937-01
200843752-01
200843753-01
200737128-01
200936276-01
200843754-01
200747938-01
200747939-01
200747940-01
200843755-01
200843756-01
200747941-01
200747942-01
200747943-01
200747944-01
200747945-01
200747946-01
200747947-01
200938427-01
200938428-01
200747948-01
200748160-01
200748161-01
201033171-01
201033172-01
200748163-01
200748164-01
200748166-01
200748167-01
200841594-01
200936320-01
200938483-01
200748169-01
200748170-01
200748171-01
200748172-01
200748173-01
200748174-01
200748175-01
200938484-01
200748176-01
200748177-01
200748178-01
200748409-01
200748410-01
201033210-01
200748411-01
200748412-01
200938534-01
200938535-01
200748413-01
200748414-01
200748416-01
200748417-01
200843844-01
200748418-01
200748419-01
200938538-01
200748420-01
200748421-01
200843845-01
200748422-01
200748423-01
200843895-01
200748641-01
200748642-01
200748643-01
201033246-01
200843896-01
200938586-01
201033247-01
201033248-01
200748644-01
200748645-01
200748646-01
200843897-01
201033249-01
200748647-01
200748648-01
201033250-01
200748650-01
200748652-01
200938587-01
200748653-01
201033278-01
200748875-01
200748876-01
200843948-01
200748877-01
200748878-01
200748879-01
200843949-01
200748880-01
200748881-01
200748882-01
200748883-01
200748884-01
200938643-01
200748885-01
200748887-01
201033279-01
200748888-01
201033280-01
200938644-01
200748890-01
200745371-01
200745372-01
200745373-01
200745374-01
200843236-01
200937927-01
200937928-01
200937929-01
200745375-01
200745376-01
200745377-01
200745378-01
200745379-01
200745380-01
200745381-01
200745382-01
200745383-01
200843237-01
200937930-01
200745384-01
200937931-01
200937932-01
200745385-01
200745386-01
200937986-01
200745599-01
200745600-01
200937987-01
200745602-01
200745603-01
200745604-01
200745606-01
200843289-01
200843290-01
200745608-01
200745609-01
200937988-01
200745610-01
200937989-01
200937990-01
200937991-01
200937992-01
200745611-01
200745612-01
201032662-01
200938047-01
200745824-01
200745825-01
201032715-01
200745826-01
201032716-01
200745827-01
200938048-01
200745828-01
200745829-01
200745831-01
200745832-01
200745833-01
200843324-01
201032717-01
200745834-01
201032718-01
200745835-01
200745836-01
200841770-01
200745837-01
200745838-01
200843369-01
200746069-01
201032759-01
200746070-01
200938085-01
201032761-01
200738196-01
201032762-01
200746072-01
200843370-01
200746073-01
200746075-01
200938086-01
200746076-01
200843371-01
200746078-01
200843373-01
200746079-01
200938087-01
200737087-01
200737091-01
200938131-01
200746317-01
201032805-01
200746318-01
200746319-01
200746320-01
200746321-01
200746322-01
200938132-01
200746323-01
200746324-01
200843404-01
200746326-01
200746327-01
200746329-01
200746330-01
201032806-01
200746332-01
200843405-01
200938133-01
200746569-01
200746570-01
200938173-01
200938174-01
200746572-01
201030967-01
200737161-01
200746574-01
200746575-01
201032841-01
200746576-01
200843449-01
200938175-01
200746577-01
200746578-01
200938176-01
200746579-01
201032842-01
200746580-01
200843450-01
200746581-01
200938218-01
200746799-01
200746800-01
201032885-01
200746801-01
200938219-01
200746802-01
200746803-01
200746805-01
200746806-01
200938220-01
200737139-01
201030964-01
201032888-01
201032889-01
201032890-01
200746807-01
201032891-01
201032892-01
201032893-01
201032894-01
200746808-01
200747024-01
200747025-01
200747026-01
200747027-01
200843551-01
200747028-01
200747029-01
200747030-01
200747031-01
200747032-01
200747033-01
200747034-01
200747036-01
200747037-01
200747038-01
200747040-01
200747041-01
200747043-01
200747044-01
201032944-01
200747251-01
200747252-01
200747253-01
200747254-01
200747255-01
200747256-01
200747257-01
200747258-01
200747259-01
200747260-01
200843595-01
200747261-01
200747262-01
200747263-01
200747264-01
200747265-01
200747266-01
200843596-01
200747267-01
200938307-01
200747269-01
200843597-01
200747479-01
200747480-01
200843654-01
200747481-01
200747482-01
201033043-01
200747483-01
200747484-01
200747485-01
200747486-01
201033044-01
200747487-01
200747488-01
200747489-01
200747490-01
200843656-01
200747491-01
200747492-01
200747493-01
200843657-01
200747494-01
200747495-01
200938393-01
200938394-01
200747710-01
200747712-01
200843705-01
201033091-01
200747714-01
200747715-01
200843706-01
200843707-01
200843708-01
200843709-01
200747717-01
200747718-01
200747719-01
200938395-01
200938396-01
200747720-01
200747721-01
200747722-01
201033092-01
200747949-01
200747950-01
200938430-01
200938431-01
200747951-01
200747952-01
201033133-01
200747953-01
200747954-01
200747956-01
201033134-01
200938432-01
200747957-01
200938433-01
200747958-01
200747959-01
200747960-01
200843759-01
200843760-01
200843761-01
200747961-01
200747962-01
200748179-01
200748180-01
200748181-01
200843808-01
200938485-01
201033173-01
201033174-01
200748182-01
200843809-01
200748183-01
200843810-01
201033175-01
200843811-01
200748184-01
200748185-01
201033176-01
200748187-01
200938487-01
200938488-01
200748188-01
200748189-01
200936546-01
200738182-01
200738183-01
200738184-01
200738400-01
200936544-01
200738401-01
200938539-01
200936545-01
200738402-01
200748424-01
200841820-01
200748425-01
200738197-01
200735829-01
200735830-01
200738198-01
200738199-01
200748426-01
200748427-01
200748428-01
200748439-01
200748654-01
200748430-01
200748431-01
200748432-01
200843846-01
200936547-01
200938540-01
200748440-01
200738404-01
200738403-01
200735831-01
201031216-01
200843847-01
200738200-01
200938541-01
200936498-01
200738201-01
200748433-01
200738202-01
200748434-01
200843848-01
200748437-01
200748438-01
200745618-01
200748655-01
200938590-01
200738410-01
200748656-01
200748657-01
200748658-01
200843899-01
200748659-01
200748660-01
200748661-01
200748662-01
200748663-01
200843900-01
200748664-01
200748665-01
200938591-01
200748666-01
200843901-01
200938592-01
200748667-01
200938645-01
200748892-01
200748893-01
200748894-01
200748896-01
200938646-01
200738405-01
200738406-01
200748897-01
200748898-01
200748899-01
200936321-01
201033281-01
200748900-01
200843951-01
200748902-01
201033282-01
200748904-01
200938648-01
201031217-01
200936548-01
201033283-01
200735832-01
200738203-01
200738204-01
200738205-01
200745387-01
200745388-01
200738206-01
200841335-01
200745389-01
200735833-01
200745390-01
200843238-01
200843239-01
200745391-01
200745392-01
200937933-01
200745393-01
200843240-01
200745394-01
201032621-01
200843241-01
200745395-01
200745396-01
200738407-01
200841777-01
200738207-01
200738208-01
200738209-01
200937934-01
200745397-01
200745398-01
200745399-01
200745400-01
200843242-01
201032622-01
201032663-01
200738210-01
200745614-01
200738211-01
200745615-01
200745616-01
200745617-01
200745620-01
200745621-01
200745622-01
200843291-01
200745623-01
200745624-01
200745625-01
200937993-01
200745626-01
200841778-01
200841779-01
200746813-01
201031182-01
200738423-01
200738424-01
200738425-01
200937994-01
200745627-01
200735834-01
200738634-01
200738426-01
201031221-01
200735835-01
200745628-01
201032719-01
200738427-01
200738408-01
200745839-01
200745840-01
200938051-01
200745841-01
200938052-01
200738409-01
200841821-01
200936549-01
200745842-01
200843325-01
200745843-01
200745844-01
201032720-01
201032721-01
200843326-01
200745845-01
201030717-01
201032722-01
200745847-01
200745848-01
201031222-01
200738428-01
201032723-01
200938053-01
200745850-01
200938088-01
200746080-01
200746081-01
200738429-01
200738430-01
200936554-01
201031223-01
201031218-01
200746082-01
200746083-01
200843374-01
200746084-01
200735836-01
200746085-01
200841826-01
200738431-01
200936555-01
200738432-01
200746815-01
200746086-01
200938089-01
200738635-01
200746088-01
200746089-01
200746090-01
200746091-01
200843375-01
200746092-01
200746093-01
200843376-01
201032763-01
200746094-01
201032764-01
200735837-01
201030754-01
200746334-01
200936586-01
200843406-01
200738636-01
200738637-01
200746335-01
201032895-01
200736072-01
201030755-01
200746336-01
200736073-01
200746337-01
200746338-01
200746340-01
200738433-01
200746341-01
200746342-01
200746343-01
201031224-01
200738434-01
200746344-01
200746345-01
200746346-01
200746347-01
200746348-01
201032807-01
200746349-01
201031266-01
200736074-01
200738638-01
200843408-01
200735363-01
200736075-01
200738435-01
200736076-01
200746351-01
200843409-01
201032843-01
200738436-01
200938178-01
200843451-01
200746584-01
200738437-01
200746585-01
200746586-01
200746587-01
200738639-01
200738640-01
200746588-01
200843453-01
200936591-01
200746589-01
200746590-01
200746591-01
200738660-01
200843454-01
200746592-01
200936592-01
200938179-01
200841868-01
200746594-01
200936593-01
200738661-01
200938180-01
200746595-01
200738662-01
200746597-01
200746809-01
200746810-01
200746811-01
200746812-01
201031270-01
200738663-01
200747285-01
200746816-01
200746817-01
200746818-01
200841869-01
200738641-01
200738664-01
200738665-01
201031271-01
201031272-01
200841877-01
200938222-01
200936594-01
200746819-01
201032896-01
200746820-01
200843503-01
200746821-01
200736077-01
200746823-01
200938223-01
200746824-01
200843552-01
200938260-01
201032945-01
200738643-01
200738644-01
200747045-01
200738666-01
200738667-01
200938261-01
200738642-01
200841870-01
200738645-01
200936587-01
200738668-01
200843553-01
200841871-01
200738646-01
201032946-01
200936074-01
200938263-01
200747046-01
200841379-01
200747047-01
200747048-01
200738669-01
201031273-01
200938264-01
200747049-01
201031274-01
200738670-01
200738671-01
201031321-01
200747050-01
200747051-01
200747052-01
200747053-01
200936636-01
201031322-01
200738891-01
200747054-01
201032947-01
201032948-01
200747055-01
200938308-01
200841922-01
200841923-01
200936588-01
200748195-01
201033177-01
200747271-01
200747272-01
200747273-01
200747274-01
200936637-01
200736078-01
200747275-01
201033001-01
200747276-01
200747277-01
200747278-01
200841924-01
200736079-01
200747279-01
200747280-01
200738892-01
200738893-01
200747281-01
200747282-01
200843598-01
201031267-01
200747283-01
200747284-01
200738894-01
200936075-01
200736080-01
200738895-01
201033003-01
200738896-01
200747286-01
200738897-01
200747496-01
200747497-01
200747498-01
200747499-01
201033045-01
200747500-01
200747501-01
201033046-01
200938350-01
201033047-01
200843658-01
200747502-01
200747504-01
200843659-01
200738867-01
200747505-01
200738868-01
200736081-01
201033048-01
200747507-01
200841912-01
200738869-01
200747508-01
200738870-01
200747510-01
200747511-01
200747723-01
200936638-01
200747724-01
200747725-01
200938397-01
201033093-01
200747726-01
200747727-01
200738898-01
201033094-01
200738899-01
200747728-01
200747729-01
200747731-01
200747732-01
200747733-01
200747735-01
200938398-01
200938399-01
200747737-01
200747738-01
200747739-01
200747963-01
200745414-01
200747964-01
200747965-01
200747966-01
201033136-01
201033137-01
200738871-01
200843762-01
200936633-01
200738872-01
200736082-01
200736083-01
200738873-01
200738874-01
201031314-01
200843763-01
200747967-01
200747968-01
200747969-01
200938434-01
200747970-01
201033138-01
200747971-01
200747973-01
200841380-01
201031315-01
200738875-01
200738900-01
200747974-01
200843764-01
200841913-01
200738901-01
200738876-01
200738877-01
200736084-01
200736085-01
200738878-01
200747975-01
200841914-01
200938436-01
201031316-01
200738879-01
200735364-01
201031317-01
200747976-01
200938491-01
200748190-01
200748191-01
200748192-01
200748193-01
200841381-01
200748196-01
200748197-01
200938492-01
200938493-01
200748198-01
200748199-01
200748200-01
201033178-01
200938494-01
200748201-01
200748202-01
200843849-01
200748203-01
200748204-01
200748205-01
200748441-01
200748442-01
200938542-01
200748444-01
200843851-01
201030756-01
200938543-01
200938544-01
200748446-01
200736318-01
201033211-01
200748452-01
200937937-01
200748447-01
201033212-01
201031323-01
200738902-01
200748448-01
200748449-01
200748450-01
200748453-01
200936639-01
200748454-01
200736319-01
200748455-01
200748668-01
200748669-01
201033251-01
200748670-01
200748671-01
200748672-01
200748673-01
200938595-01
200938596-01
200748674-01
200938597-01
200843904-01
200938598-01
200745428-01
200748676-01
201033252-01
200843905-01
200748677-01
200748678-01
200748679-01
200736320-01
200938649-01
200843952-01
200843953-01
200748906-01
200748907-01
200748908-01
201032677-01
200748909-01
200748910-01
200936123-01
200748911-01
200736321-01
200748912-01
200748913-01
200748914-01
200748915-01
200748916-01
200735380-01
200841915-01
200938650-01
200735381-01
201033284-01
200735382-01
200748917-01
200841244-01
200735383-01
200735350-01
200735351-01
200735352-01
200735349-01
200748919-01
201030614-01
200935946-01
200843956-01
200935947-01
200735384-01
200735385-01
200735386-01
200748920-01
200735387-01
200735388-01
200735389-01
200841420-01
200736322-01
200936120-01
200745402-01
201032623-01
200745403-01
200843243-01
200745404-01
200841288-01
200843244-01
200736323-01
200736324-01
200937935-01
200745405-01
200745406-01
200745407-01
200745408-01
200745409-01
200745410-01
200843245-01
200745411-01
200745412-01
200745413-01
200745415-01
200745416-01
200937936-01
201032666-01
200843293-01
200843295-01
201030662-01
200735390-01
200843296-01
200745629-01
200745630-01
200937995-01
200745631-01
200843297-01
200735391-01
201030615-01
200735353-01
200745632-01
200745633-01
200745634-01
201032667-01
200937996-01
200745635-01
200735392-01
200745637-01
200937997-01
200735354-01
200937998-01
200745638-01
200745639-01
200938054-01
200745853-01
200843327-01
200843328-01
200745854-01
200745855-01
200843329-01
200843330-01
200736325-01
200938055-01
200745856-01
200745858-01
200736326-01
200745859-01
200745860-01
200843331-01
200938056-01
200745862-01
200735355-01
200735356-01
200735365-01
200745864-01
200745865-01
200736327-01
200735393-01
201030616-01
200746095-01
200735934-01
200843377-01
200938091-01
200746096-01
200746097-01
201032765-01
200746098-01
200746099-01
201032766-01
200746100-01
200746101-01
200746102-01
200746103-01
200938092-01
200746105-01
200746106-01
200746108-01
200746109-01
200735357-01
200935941-01
200735394-01
200735395-01
201030668-01
200735358-01
200735604-01
200735605-01
200746110-01
200735606-01
200746111-01
200735607-01
200843378-01
200746112-01
200746352-01
200938134-01
200746353-01
200843410-01
200746354-01
200746355-01
200843411-01
200746356-01
200746357-01
200746358-01
200746359-01
200843412-01
200938135-01
200938136-01
200746360-01
200746361-01
200938137-01
200746363-01
200843413-01
200746365-01
201032808-01
200938181-01
200843455-01
200843456-01
200935992-01
200735608-01
200735359-01
200735360-01
200735609-01
200938183-01
201032844-01
200935993-01
200735361-01
200735610-01
200841295-01
200735611-01
200735612-01
200735613-01
200938184-01
200746598-01
200746599-01
200746601-01
200746602-01
200746603-01
200935942-01
201030663-01
200735362-01
200735571-01
200746604-01
200735614-01
200746605-01
200938185-01
200746606-01
201032846-01
200746607-01
200843457-01
200746608-01
200735615-01
200938186-01
201030669-01
200841296-01
200736328-01
200843505-01
200843506-01
201032897-01
200843507-01
200735572-01
200746825-01
200746826-01
200736329-01
200746827-01
201032900-01
200843508-01
200843509-01
200735616-01
200938224-01
200736330-01
200735617-01
201030792-01
200736331-01
200746829-01
200746830-01
201032901-01
200746831-01
200746832-01
200736332-01
200841290-01
201030714-01
200841297-01
200735618-01
200735573-01
200735574-01
201030661-01
200841287-01
200936040-01
200746833-01
200735838-01
200746834-01
200746835-01
200843555-01
200747057-01
200747058-01
200747059-01
200843556-01
200843557-01
200747060-01
200938265-01
200747061-01
200747062-01
200843558-01
200747063-01
200747064-01
201032949-01
201032950-01
200747065-01
200747066-01
200747067-01
200843559-01
201032951-01
201032952-01
200747068-01
200747287-01
200843600-01
200747288-01
200747289-01
200747291-01
201033004-01
200938310-01
200843601-01
200747292-01
200747293-01
200747294-01
200747295-01
200747296-01
200747297-01
200843602-01
200735575-01
200735576-01
201030718-01
200735839-01
200938311-01
200747298-01
200747299-01
200735577-01
200747301-01
200938351-01
200747512-01
200747514-01
200747515-01
201033049-01
200747517-01
200938352-01
200747518-01
200745432-01
200736333-01
200747519-01
200747520-01
200843660-01
200843661-01
201033051-01
200735840-01
200735841-01
200936124-01
200747521-01
201030719-01
200735578-01
200736334-01
200735579-01
200735580-01
200938353-01
201030720-01
200747522-01
201033052-01
201033053-01
200747523-01
200747741-01
200843710-01
200747742-01
200938400-01
200735581-01
200747743-01
200747744-01
200747745-01
200747746-01
200747747-01
200747748-01
200735582-01
200747749-01
200747750-01
200747751-01
200747753-01
200735842-01
200936041-01
200841336-01
201033096-01
200936042-01
200735843-01
201033097-01
201030721-01
201030722-01
200735844-01
200735845-01
200735846-01
200735847-01
200735848-01
200843712-01
200747754-01
200747755-01
201033098-01
200747977-01
200747978-01
200747979-01
200843765-01
200747980-01
200747981-01
200747982-01
200843766-01
200747983-01
200747984-01
200747985-01
200747986-01
200747987-01
200843767-01
200747988-01
200747989-01
200747990-01
200747991-01
200747992-01
200747994-01
200747995-01
200747996-01
200748206-01
200748207-01
200748208-01
200938495-01
201033179-01
200735583-01
200748209-01
200748210-01
200735584-01
200735585-01
200938496-01
200841291-01
200735849-01
200843814-01
200735850-01
200748211-01
200736086-01
200736087-01
200748212-01
200938497-01
200736088-01
200736089-01
200841382-01
200938498-01
200938499-01
200748214-01
200748216-01
200748217-01
200748218-01
200748219-01
200748456-01
200748457-01
200841292-01
200843852-01
200748458-01
200841383-01
200736090-01
201030665-01
200748459-01
200843853-01
200938545-01
200736562-01
200841458-01
200748460-01
200843854-01
200748462-01
201033214-01
200748463-01
200748464-01
200748465-01
200748466-01
200936076-01
200748468-01
200735937-01
200843855-01
200748469-01
200735586-01
200843856-01
200748680-01
200748681-01
200748682-01
200748683-01
200748684-01
200748685-01
200748687-01
200748688-01
200748689-01
200735809-01
200735810-01
201030712-01
200735811-01
200748691-01
201030838-01
200736563-01
200936173-01
200748692-01
200938599-01
200936077-01
201030713-01
200843906-01
200843907-01
200748694-01
200748695-01
200748696-01
200748697-01
200736091-01
200748698-01
200748699-01
200736092-01
200748921-01
200748922-01
200748923-01
200748925-01
200843957-01
200843958-01
200736093-01
200736094-01
200735812-01
200936078-01
200735813-01
200735814-01
200936037-01
200748926-01
200748927-01
200735815-01
200735816-01
200938651-01
200748929-01
200748930-01
200748931-01
200938652-01
200748932-01
200735817-01
200736564-01
200748934-01
200748935-01
200748936-01
200748938-01
201033285-01
201032624-01
200937938-01
200745417-01
201032625-01
200745418-01
200745419-01
200745420-01
200745421-01
200843246-01
200937939-01
200745422-01
200745423-01
200745424-01
200745425-01
200745426-01
200937940-01
200736095-01
200736096-01
200736097-01
201030757-01
200736098-01
200736099-01
200841384-01
200745427-01
201032630-01
200745430-01
200736565-01
200745431-01
200936079-01
201032631-01
201032668-01
200745640-01
201032670-01
201032671-01
200841421-01
200841331-01
200841330-01
200735818-01
200735947-01
200735819-01
200736335-01
201030796-01
201032672-01
200745642-01
201032673-01
200745643-01
201030715-01
200745644-01
200745645-01
200843298-01
201032674-01
200736336-01
201032675-01
200745646-01
200745647-01
200745648-01
200843299-01
200745650-01
200745651-01
200736566-01
201032724-01
200745868-01
200735820-01
200936038-01
200736567-01
200745869-01
200938057-01
200736568-01
200745870-01
200736337-01
200843332-01
200745871-01
200745872-01
200745873-01
200745874-01
200745875-01
200745876-01
200843333-01
200745877-01
200745878-01
201032725-01
200745879-01
200745880-01
200843334-01
200843335-01
200745881-01
200745882-01
200746114-01
200746115-01
200746116-01
200746117-01
200746118-01
200746119-01
200746120-01
201032767-01
200938093-01
200746121-01
200746122-01
200746123-01
200746124-01
200746125-01
201032768-01
200746126-01
200746127-01
201032769-01
200735821-01
200841332-01
200841415-01
200736057-01
201032770-01
200736058-01
200746128-01
200746366-01
200736338-01
200746367-01
200746368-01
200736339-01
200746370-01
200746371-01
200746372-01
200746373-01
200746374-01
200746375-01
200746376-01
201032809-01
201032810-01
200843415-01
200736059-01
200938138-01
201030793-01
200746377-01
200746378-01
200938139-01
200736569-01
200736570-01
200736571-01
200746379-01
200746380-01
200746381-01
200746610-01
200746611-01
200736056-01
200736060-01
200736061-01
200936174-01
200736062-01
201032847-01
200843458-01
200841422-01
200843459-01
200746613-01
200746614-01
200746615-01
200736572-01
200841423-01
201030839-01
200736340-01
200736341-01
200841459-01
201032848-01
200746616-01
200746618-01
200843460-01
200746619-01
200746621-01
200746622-01
200843461-01
200736063-01
200936125-01
200736342-01
200746623-01
200746624-01
200843510-01
200746836-01
200938226-01
200938227-01
201032902-01
200746837-01
200736064-01
201030794-01
201032903-01
200736343-01
200936175-01
200736344-01
200746838-01
200746839-01
200746840-01
200746841-01
200746843-01
200843511-01
201032904-01
201030840-01
200843512-01
200746844-01
200843513-01
200736345-01
200746846-01
201032906-01
200746847-01
200938266-01
200936126-01
200736346-01
200736347-01
201030797-01
200736348-01
200936176-01
200747069-01
200736573-01
201032953-01
200747070-01
201032954-01
200843560-01
200747071-01
200747072-01
200841416-01
200736065-01
200938267-01
200938268-01
200736574-01
201032955-01
200841497-01
201032956-01
200747074-01
200747075-01
200736349-01
200736799-01
200841498-01
200747076-01
200938270-01
200938271-01
200736575-01
200936177-01
200747077-01
200747078-01
200747079-01
200843561-01
200736066-01
200736800-01
201033006-01
200747302-01
200736067-01
200843603-01
200747303-01
200938312-01
200736576-01
200938313-01
200747305-01
200843604-01
200936121-01
200736577-01
200843605-01
200736578-01
200747307-01
200747308-01
200841417-01
200736068-01
200747309-01
200736069-01
200736070-01
200736071-01
200747310-01
200747311-01
200747312-01
200747313-01
200747314-01
200747315-01
200843606-01
200843662-01
200843663-01
200747525-01
200747527-01
200736801-01
200736802-01
200736579-01
200747528-01
200736580-01
200747529-01
201030795-01
200736581-01
201033054-01
200736803-01
200747530-01
200843664-01
200747531-01
200747532-01
200747533-01
200936178-01
200747534-01
200747535-01
200938354-01
200747536-01
200936179-01
200747537-01
200736804-01
200747539-01
200747540-01
200747542-01
200747756-01
200747757-01
200736582-01
200747759-01
200747760-01
200747761-01
200747762-01
200841499-01
200747763-01
200936180-01
200747764-01
200938401-01
200747765-01
200747766-01
201030841-01
200736583-01
201033099-01
200938402-01
200938403-01
200747767-01
200747768-01
200938404-01
200843713-01
200747770-01
200843714-01
200747771-01
200843769-01
200736584-01
201033139-01
200843770-01
201033140-01
200938437-01
200736585-01
201030842-01
201030843-01
200747997-01
201033141-01
200938438-01
200736805-01
201033142-01
200747998-01
200747999-01
200843771-01
200748000-01
201033143-01
200748002-01
200938439-01
200736301-01
200748003-01
200748005-01
200736806-01
201030844-01
201033144-01
201030845-01
200748220-01
200736807-01
200841414-01
200843815-01
200938500-01
200736302-01
200936122-01
200736586-01
200748221-01
200736303-01
200938501-01
200736587-01
200748222-01
200736815-01
200936211-01
200736304-01
200748223-01
201033180-01
200843816-01
200748224-01
200841500-01
200748225-01
200843817-01
200748227-01
200748228-01
200748230-01
201033181-01
200841501-01
200748231-01
200736816-01
200938502-01
200748232-01
201030898-01
200736305-01
200938503-01
200736306-01
200736307-01
200736308-01
200748233-01
200736817-01
200841502-01
200736808-01
200748470-01
200736809-01
200748472-01
200938546-01
200736309-01
200736810-01
200736811-01
200736812-01
200748473-01
201033216-01
201033217-01
200748475-01
200843857-01
200736818-01
200736819-01
200938547-01
200748476-01
201030899-01
200748477-01
200843858-01
200843859-01
200938548-01
200736820-01
200736813-01
200938549-01
200938550-01
200843860-01
200748478-01
200736310-01
200938551-01
200736311-01
200736312-01
200748480-01
200748700-01
200748701-01
200748702-01
200736821-01
200736814-01
200736313-01
201030900-01
200748704-01
200938600-01
200938601-01
200748705-01
200748706-01
200841418-01
200748707-01
200938602-01
200736822-01
200936212-01
200748708-01
200748709-01
201033254-01
200748710-01
200843908-01
200748711-01
200748712-01
200748713-01
200736823-01
200736824-01
200748715-01
200748716-01
200748940-01
200737047-01
200938653-01
200841503-01
200938654-01
200748941-01
200748942-01
200748943-01
200843960-01
200748944-01
200748945-01
200748947-01
200748948-01
200748950-01
200748951-01
200748952-01
200938655-01
200936259-01
200748953-01
200748954-01
200748956-01
200745429-01
200745433-01
200745434-01
200843248-01
200745435-01
200745401-01
200745436-01
200736314-01
200737048-01
200841419-01
200736793-01
200736315-01
200745437-01
200745438-01
200745439-01
200745440-01
201032626-01
200843249-01
200745441-01
200737049-01
201032632-01
200745442-01
200937941-01
200745443-01
200936213-01
200736825-01
200736826-01
200745444-01
200745445-01
200736827-01
200745447-01
200745449-01
201030901-01
200745652-01
200736316-01
200938000-01
200745653-01
200736828-01
200737063-01
200841535-01
200843300-01
200745654-01
200938001-01
200745655-01
200745656-01
200938002-01
200737064-01
201032678-01
200841533-01
200737065-01
200737050-01
200745658-01
200938003-01
200843301-01
200745660-01
200745661-01
200737066-01
200843302-01
200745663-01
200745664-01
201032679-01
200938058-01
200745883-01
200736317-01
200736551-01
200745884-01
200745885-01
200745886-01
200936171-01
200745888-01
201030833-01
200841454-01
200736552-01
200936261-01
200745889-01
201030834-01
201030835-01
200736553-01
200843336-01
200736554-01
201030836-01
201032726-01
200938059-01
200745891-01
201032727-01
200843337-01
200745892-01
200745893-01
200745894-01
200938060-01
200745895-01
200745896-01
200745897-01
201032728-01
200746129-01
200746130-01
200746131-01
200746132-01
200746133-01
200746134-01
200746135-01
200746137-01
200746138-01
200746140-01
200746141-01
200938094-01
200936172-01
200736555-01
200841534-01
200746143-01
200746144-01
200843381-01
200746145-01
200938095-01
200746146-01
200746147-01
200746148-01
200843382-01
200746382-01
200746383-01
201032812-01
200746384-01
200746385-01
200746386-01
200938140-01
200746388-01
200746389-01
201032813-01
200843417-01
200843418-01
200843419-01
200746390-01
200938143-01
200746392-01
200746393-01
200738031-01
200738034-01
200746394-01
200746625-01
201032850-01
200746626-01
201032851-01
200746627-01
200746628-01
200746629-01
200746630-01
200938187-01
200746631-01
201032852-01
200746632-01
200746633-01
200746634-01
200843462-01
200746635-01
201032853-01
200746636-01
200746637-01
200746638-01
200746639-01
201032854-01
201032855-01
200746849-01
200843514-01
200843515-01
200746851-01
200843516-01
200746852-01
200746853-01
200746854-01
200746855-01
200746856-01
200746857-01
200746858-01
200938228-01
200746859-01
200746860-01
200843517-01
200746861-01
201032908-01
200938229-01
200746863-01
201032957-01
200747081-01
200747082-01
200747083-01
200938272-01
200747085-01
200747086-01
200843562-01
200747087-01
200738096-01
200936481-01
200747089-01
200747090-01
200938274-01
200938275-01
200938276-01
200747091-01
200747092-01
201032958-01
200747093-01
200843563-01
201032959-01
200747316-01
200747317-01
200747318-01
200843607-01
200747319-01
200843608-01
200747320-01
200843609-01
200747321-01
200938314-01
201033009-01
200747322-01
200938315-01
200843612-01
200747323-01
200737051-01
201033010-01
200737067-01
201030895-01
200747325-01
200737052-01
200737053-01
200737054-01
200747326-01
200843613-01
200843614-01
200747543-01
200937754-01
200747544-01
200747545-01
200747546-01
200747547-01
201033055-01
200743502-01
200747549-01
200747550-01
200841536-01
200747551-01
200737068-01
200747553-01
200747554-01
200747555-01
200938355-01
200747556-01
200843665-01
200938356-01
200747557-01
200747558-01
200747559-01
200747560-01
200938357-01
201033100-01
200747772-01
200747773-01
201033101-01
200843715-01
200747774-01
200747775-01
200747776-01
200747777-01
200747778-01
200747779-01
200747780-01
200747781-01
200843716-01
201033103-01
200747783-01
200747784-01
200747786-01
201033104-01
200747787-01
200748007-01
200748008-01
200843772-01
201033145-01
200748009-01
200748010-01
200938440-01
200748011-01
200938441-01
200843773-01
200748012-01
200748013-01
200748014-01
200748015-01
200748016-01
200843774-01
200748017-01
200843775-01
200748019-01
200748020-01
200748021-01
200748022-01
200748234-01
200748235-01
200843818-01
200748237-01
200748238-01
201033182-01
200748239-01
200748240-01
200748241-01
201033183-01
201033184-01
200843819-01
200748242-01
200748243-01
200748245-01
200748246-01
201033185-01
200748248-01
200748249-01
201033186-01
200748481-01
200748482-01
200748484-01
200748485-01
201033218-01
200748486-01
200843861-01
200738288-01
200738291-01
200748487-01
200843862-01
200748488-01
200843863-01
200748489-01
200748490-01
200748491-01
200938552-01
200748492-01
200748493-01
200938553-01
200843864-01
200748494-01
200748495-01
201033255-01
200748717-01
200748718-01
201033256-01
200748719-01
200748720-01
200748721-01
200748723-01
200938603-01
200843910-01
200748725-01
200748726-01
200843911-01
200843912-01
200748727-01
200938605-01
200843913-01
200938606-01
200748728-01
200748729-01
200748730-01
200748957-01
200748958-01
200748959-01
200748960-01
200748961-01
200748962-01
200938656-01
201033287-01
200748963-01
200938657-01
200748964-01
200748965-01
200748966-01
200748968-01
200748969-01
200748970-01
200748972-01
200938658-01
200843962-01
200748973-01
200748974-01
201032634-01
200843250-01
200745446-01
200843251-01
200938009-01
200745450-01
201032635-01
200938010-01
200745451-01
200745452-01
200745453-01
200745454-01
200745455-01
200745456-01
201032636-01
201032633-01
200843252-01
200745457-01
200745458-01
200843247-01
201032638-01
200745460-01
201032123-01
200937429-01
200742904-01
200842732-01
200742905-01
200742906-01
200937430-01
200742903-01
200742907-01
200742908-01
200742909-01
201032124-01
200742910-01
200742911-01
200742912-01
200742913-01
200937431-01
200742914-01
201032125-01
200742915-01
201032122-01
200742916-01
200937428-01
201032151-01
200842763-01
200743077-01
200743079-01
200743080-01
200743082-01
200743083-01
200743084-01
200937470-01
200743085-01
200743086-01
200842765-01
201032152-01
201032153-01
200743087-01
201032154-01
200743088-01
200743089-01
200937471-01
200937472-01
200743090-01
201032189-01
201032193-01
200743249-01
200743250-01
200743251-01
200743252-01
200743253-01
200743254-01
200743255-01
201032194-01
200743256-01
200743257-01
200842795-01
200743259-01
200743260-01
200937511-01
200743261-01
200842799-01
201032195-01
200743262-01
200842800-01
200743263-01
200743429-01
200743430-01
200743431-01
200743432-01
200937544-01
200743433-01
200743434-01
200743435-01
200743436-01
200743437-01
200842831-01
200937545-01
200937546-01
200743438-01
200743439-01
200743440-01
200743442-01
200842832-01
200743443-01
200743444-01
200937547-01
200743608-01
201032258-01
201032259-01
200743609-01
200743610-01
200743611-01
200743612-01
200937578-01
200842869-01
201032260-01
200937579-01
200743613-01
201032261-01
200743614-01
200743615-01
200842870-01
200743616-01
200743617-01
200743618-01
200743619-01
200743620-01
200743621-01
200743622-01
201032294-01
200743779-01
200743780-01
200743781-01
200743783-01
200743784-01
200743785-01
200743786-01
200743787-01
200937608-01
200743788-01
200743789-01
200743790-01
200743791-01
200743792-01
200937609-01
200842902-01
200743793-01
200743794-01
200842903-01
200743795-01
200743796-01
201032321-01
200743945-01
200743946-01
200743947-01
200743948-01
200743950-01
200743951-01
200937644-01
200743953-01
200743954-01
200743955-01
200743956-01
201032322-01
200743957-01
200842931-01
200743958-01
200743959-01
201032323-01
200743960-01
200743961-01
200743962-01
200744108-01
200842962-01
200744109-01
200937675-01
200744110-01
201032354-01
200744111-01
200937676-01
200744112-01
201032355-01
200744113-01
200744114-01
201032356-01
200842963-01
201032357-01
200937678-01
200744116-01
200744117-01
200937679-01
200744118-01
200744119-01
200744272-01
201032385-01
200744273-01
200937703-01
201032386-01
200744274-01
200744275-01
201032387-01
200744276-01
200744277-01
200937704-01
200744278-01
200744279-01
200842997-01
200744280-01
200744281-01
200937705-01
201032388-01
201032389-01
200744283-01
200744284-01
200842998-01
200937734-01
200744436-01
200744438-01
200843025-01
200744439-01
200744440-01
200744441-01
200744442-01
200937735-01
200744443-01
200843026-01
200937736-01
200937737-01
200744444-01
200937738-01
200744445-01
200744446-01
200744447-01
201030942-01
200737055-01
201032418-01
201032419-01
200744449-01
200744577-01
200737069-01
201030837-01
200936262-01
200737070-01
201032455-01
200737056-01
200937777-01
200744578-01
200744579-01
200744580-01
200744581-01
201032456-01
200843062-01
200843063-01
200744582-01
200744583-01
200843064-01
200843065-01
200744584-01
200744585-01
200843066-01
200744586-01
201032457-01
200937778-01
200937779-01
200744587-01
200744588-01
200843067-01
200937803-01
200744727-01
200744728-01
200843108-01
200937804-01
200937805-01
200744730-01
201032491-01
200744731-01
200744732-01
200744733-01
200744734-01
200744735-01
201032492-01
200744736-01
200843109-01
201032493-01
200744737-01
200744738-01
200744739-01
200843139-01
201032523-01
200744892-01
201032524-01
200843141-01
200744894-01
200744895-01
200744896-01
200937831-01
201032525-01
200937832-01
200738047-01
200738294-01
200744897-01
200744898-01
201032526-01
200744899-01
200937833-01
200744900-01
201032527-01
200744901-01
200744902-01
201032562-01
200937864-01
200745040-01
200937865-01
201032563-01
200843179-01
200745041-01
200745042-01
201032564-01
200745043-01
200745044-01
200745045-01
200745047-01
200745052-01
200745053-01
201032566-01
200745048-01
200745055-01
201032567-01
200843182-01
200937896-01
200745218-01
200843202-01
200745219-01
200745220-01
201032595-01
200745217-01
200843203-01
200745221-01
200745222-01
200937897-01
200745224-01
200937892-01
200745226-01
200745227-01
200745228-01
200745230-01
200937898-01
200742739-01
200742740-01
200742741-01
201032090-01
200742742-01
200738224-01
200738320-01
200937404-01
200742743-01
200742738-01
201032091-01
200742744-01
200742745-01
200742746-01
200742747-01
200842697-01
200842698-01
200842699-01
200742748-01
200742749-01
200742750-01
200742751-01
200742752-01
200742753-01
200742754-01
200842696-01
200937432-01
200742917-01
200842733-01
201032126-01
200742919-01
200742920-01
201032128-01
200742918-01
200742922-01
200742923-01
200742924-01
200842735-01
201030940-01
200937435-01
200742925-01
200842736-01
200742926-01
200742927-01
200742928-01
200742929-01
201032155-01
201032156-01
200743092-01
200743093-01
200743094-01
200743096-01
200937473-01
200743097-01
200842766-01
200743099-01
201032157-01
200937474-01
200743101-01
200936559-01
200738452-01
201032158-01
200743102-01
200743103-01
200743104-01
200743105-01
201032159-01
200743264-01
200743265-01
200743266-01
200743267-01
200743268-01
200743269-01
200743271-01
201032196-01
200743272-01
200937513-01
200743273-01
200842801-01
200743274-01
201032197-01
200743276-01
200743277-01
200743279-01
200743280-01
200743445-01
200738064-01
201031151-01
200743446-01
200743447-01
200842833-01
200743448-01
200743449-01
200743450-01
200842834-01
201032229-01
200842835-01
201032230-01
200743451-01
200842836-01
200743453-01
200842837-01
200743455-01
201032231-01
200743456-01
200743457-01
201032232-01
200743623-01
200743624-01
200743625-01
201032262-01
201032263-01
200743627-01
200936523-01
200936526-01
200743628-01
200743629-01
200743630-01
201032264-01
200743631-01
200937580-01
200937581-01
200743632-01
200842873-01
200743633-01
200842874-01
200743634-01
200743635-01
200743636-01
200743637-01
200743797-01
200743798-01
200937610-01
200743799-01
200743800-01
200743801-01
200743803-01
200743804-01
200937611-01
200937612-01
200743805-01
200743807-01
200842905-01
200743808-01
200743809-01
200937613-01
200743810-01
200743811-01
200743812-01
200842906-01
200937614-01
200743963-01
201032324-01
200842932-01
200743964-01
200937646-01
200743965-01
200743966-01
200842933-01
200743967-01
200743968-01
200743969-01
200743970-01
200937647-01
200937648-01
200743971-01
200743973-01
200842934-01
200743974-01
200743975-01
200743976-01
200743977-01
200744120-01
200937680-01
200744121-01
200744122-01
201032358-01
200937681-01
200744123-01
200842965-01
200937682-01
200744124-01
200744125-01
200744126-01
200842966-01
200744127-01
200937683-01
200744128-01
200744129-01
200744130-01
200744131-01
200937684-01
200744133-01
200744134-01
200744286-01
200744287-01
200744288-01
200744289-01
200744290-01
200744291-01
201032390-01
200744292-01
200744293-01
201032391-01
200744294-01
200744295-01
200842999-01
200744296-01
200744297-01
201032392-01
200744298-01
200843000-01
200937707-01
200744299-01
200937708-01
200744300-01
200744451-01
200744452-01
200937740-01
200744453-01
200744454-01
200744456-01
200744457-01
200937741-01
201032420-01
200843027-01
200744459-01
200843028-01
200744460-01
200744461-01
200744462-01
200937742-01
200744463-01
201032421-01
201032422-01
200843029-01
201032458-01
200843068-01
200843070-01
200744589-01
200744590-01
200744591-01
200744592-01
200744593-01
200937780-01
200744594-01
200744595-01
200843071-01
200744597-01
200735635-01
200735638-01
200744599-01
200744600-01
201032461-01
200843072-01
200744601-01
200744602-01
200744740-01
200843110-01
200744741-01
200744742-01
200744743-01
200744744-01
200744745-01
200744746-01
201032494-01
200843111-01
200937808-01
200744748-01
200744750-01
200744751-01
200937809-01
201032495-01
200744754-01
200744755-01
201032496-01
200841831-01
200738465-01
200843144-01
200744904-01
200937834-01
200744905-01
200744906-01
200744907-01
200744908-01
200744909-01
200744910-01
200744911-01
200744912-01
201032528-01
200744913-01
200744914-01
200744915-01
200744916-01
200843145-01
200744917-01
200744918-01
200744919-01
200843146-01
200843147-01
200745056-01
200745057-01
200745058-01
200745059-01
200745060-01
201032568-01
200745062-01
200745063-01
200745064-01
201032565-01
200745065-01
200745066-01
200745067-01
200745068-01
200745069-01
201032569-01
200843183-01
200745071-01
200745072-01
